secs,cad,hr,km,kph,nm,watts,alt,lon,lat,headwind,slope,temp,interval,lrbalance,lte,rte,lps,rps,smo2,thb,o2hb,hhb
0,0,117,0,2.48714,0,119,0,0.00000000,0.00000000,0,0,0,0,-255,0,0,0,0,78.1,13.07,10.2077,2.86233
1,1,118,0.00152001,8.24295,0,348,0,0.00000000,0.00000000,0,0,0,0,-255,0,0,0,0,78.1,13.07,10.2077,2.86233
2,56,119,0.00464264,12.9972,0,292,0,0.00000000,0.00000000,0,0,0,0,-255,0,0,0,0,77.8,13.07,10.1685,2.90154
3,68,120,0.00872298,15.9087,0,307,0,0.00000000,0.00000000,0,0,0,0,-255,0,0,0,0,77.8,13.07,10.1685,2.90154
4,81,121,0.0136624,18.3078,0,301,0,0.00000000,0.00000000,0,0,0,0,-255,0,0,0,0,77,13.06,10.0562,3.0038
5,84,122,0.019199,20.2873,0,302,0,0.00000000,0.00000000,0,0,0,0,-255,0,0,0,0,77,13.06,10.0562,3.0038
6,88,123,0.0252877,21.9963,0,306,0,0.00000000,0.00000000,0,0,0,0,-255,0,0,0,0,74.9,13.05,9.77445,3.27555
7,88,124,0.0317721,23.4664,0,302,0,0.00000000,0.00000000,0,0,0,0,-255,0,0,0,0,74.9,13.05,9.77445,3.27555
8,88,125,0.0374953,24.5318,0,300,0,0.00000000,0.00000000,0,0,0,0,-255,0,0,0,0,70.9,13.03,9.23827,3.79173
9,98,126,0.0447679,25.6719,0,301,0,0.00000000,0.00000000,0,0,0,0,-255,0,0,0,0,70.9,13.03,9.23827,3.79173
10,100,128,0.0522501,26.66,0,297,0,0.00000000,0.00000000,0,0,0,0,-255,0,0,0,0,65.6,13.01,8.53456,4.47544
11,98,129,0.0601948,27.5408,0,298,0,0.00000000,0.00000000,0,0,0,0,-255,0,0,0,0,65.6,13.01,8.53456,4.47544
12,96,130,0.0682338,28.3041,0,299,0,0.00000000,0.00000000,0,0,0,0,-255,0,0,0,0,60.5,12.98,7.8529,5.1271
13,95,131,0.0765299,28.9879,0,301,0,0.00000000,0.00000000,0,0,0,0,-255,0,0,0,0,60.5,12.98,7.8529,5.1271
14,96,133,0.08487,29.5884,0,300,0,0.00000000,0.00000000,0,0,0,0,-255,0,0,0,0,56.4,12.96,7.30944,5.65056
15,97,134,0.0915359,30.0112,0,299,0,0.00000000,0.00000000,0,0,0,0,-255,0,0,0,0,56.4,12.96,7.30944,5.65056
16,96,134,0.100158,30.49,0,299,0,0.00000000,0.00000000,0,0,0,0,-255,0,0,0,0,51.6,12.95,6.6822,6.2678
17,96,135,0.10883,30.9119,0,300,0,0.00000000,0.00000000,0,0,0,0,-255,0,0,0,0,51.6,12.95,6.6822,6.2678
18,95,136,0.11788,31.3009,0,299,0,0.00000000,0.00000000,0,0,0,0,-255,0,0,0,0,46.5,12.95,6.02175,6.92825
19,94,137,0.126877,31.6348,0,298,0,0.00000000,0.00000000,0,0,0,0,-255,0,0,0,0,46.5,12.95,6.02175,6.92825
20,94,138,0.136119,31.9348,0,298,0,0.00000000,0.00000000,0,0,0,0,-255,0,0,0,0,42,12.95,5.439,7.511
21,94,139,0.145439,32.2013,0,299,0,0.00000000,0.00000000,0,0,0,0,-255,0,0,0,0,42,12.95,5.439,7.511
22,92,139,0.154579,32.4346,0,299,0,0.00000000,0.00000000,0,0,0,0,-255,0,0,0,0,37.9,12.96,4.91184,8.04816
23,89,140,0.16225,32.6063,0,298,0,0.00000000,0.00000000,0,0,0,0,-255,0,0,0,0,37.9,12.96,4.91184,8.04816
24,89,140,0.171517,32.7922,0,299,0,0.00000000,0.00000000,0,0,0,0,-255,0,0,0,0,33.4,12.96,4.32864,8.63136
25,88,141,0.181053,32.9692,0,300,0,0.00000000,0.00000000,0,0,0,0,-255,0,0,0,0,33.4,12.96,4.32864,8.63136
26,90,141,0.190561,33.1305,0,301,0,0.00000000,0.00000000,0,0,0,0,-255,0,0,0,0,30.6,12.97,3.96882,9.00118
27,91,142,0.199797,33.2667,0,301,0,0.00000000,0.00000000,0,0,0,0,-255,0,0,0,0,30.6,12.97,3.96882,9.00118
28,94,143,0.209267,33.385,0,299,0,0.00000000,0.00000000,0,0,0,0,-255,0,0,0,0,29.1,12.97,3.77427,9.19573
29,93,143,0.219095,33.4895,0,300,0,0.00000000,0.00000000,0,0,0,0,-255,0,0,0,0,28.3,12.97,3.67051,9.29949
30,93,144,0.22671,33.5654,0,301,0,0.00000000,0.00000000,0,0,0,0,-255,0,0,0,0,28.3,12.97,3.67051,9.29949
31,92,145,0.236277,33.6532,0,300,0,0.00000000,0.00000000,0,0,0,0,-255,0,0,0,0,28.3,12.97,3.67051,9.29949
32,93,145,0.245804,33.7265,0,298,0,0.00000000,0.00000000,0,0,0,0,-255,0,0,0,0,27.1,12.97,3.51487,9.45513
33,92,146,0.255577,33.7928,0,299,0,0.00000000,0.00000000,0,0,0,0,-255,0,0,0,0,27.1,12.97,3.51487,9.45513
34,91,146,0.265333,33.8576,0,301,0,0.00000000,0.00000000,0,0,0,0,-255,0,0,0,0,26.2,12.98,3.40076,9.57924
35,92,146,0.274883,33.9105,0,298,0,0.00000000,0.00000000,0,0,0,0,-255,0,0,0,0,25.1,12.99,3.26049,9.72951
36,93,148,0.284581,33.9588,0,300,0,0.00000000,0.00000000,0,0,0,0,-255,0,0,0,0,25.1,12.99,3.26049,9.72951
37,93,148,0.294301,34.0014,0,299,0,0.00000000,0.00000000,0,0,0,0,-255,0,0,0,0,25.1,12.99,3.26049,9.72951
38,93,149,0.303908,34.0406,0,300,0,0.00000000,0.00000000,0,0,0,0,-255,0,0,0,0,24.7,12.99,3.20853,9.78147
39,93,149,0.311742,34.0689,0,300,0,0.00000000,0.00000000,0,0,0,0,-255,0,0,0,0,24.7,12.99,3.20853,9.78147
40,93,150,0.321457,34.1005,0,300,0,0.00000000,0.00000000,0,0,0,0,-255,0,0,0,0,24.3,12.99,3.15657,9.83343
41,93,150,0.331337,34.1293,0,300,0,0.00000000,0.00000000,0,0,0,0,-255,0,0,0,0,24.3,12.99,3.15657,9.83343
42,92,151,0.340869,34.1536,0,300,0,0.00000000,0.00000000,0,0,0,0,-255,0,0,0,0,24.2,12.99,3.14358,9.84642
43,92,152,0.350425,34.1714,0,299,0,0.00000000,0.00000000,0,0,0,0,-255,0,0,0,0,24.2,12.99,3.14358,9.84642
44,92,152,0.360193,34.1884,0,300,0,0.00000000,0.00000000,0,0,0,0,-255,0,0,0,0,23.9,12.99,3.10461,9.88539
45,92,153,0.369913,34.2047,0,300,0,0.00000000,0.00000000,0,0,0,0,-255,0,0,0,0,24.1,12.99,3.13059,9.85941
46,91,153,0.379638,34.2202,0,300,0,0.00000000,0.00000000,0,0,0,0,-255,0,0,0,0,24.1,12.99,3.13059,9.85941
47,91,154,0.389686,34.2354,0,300,0,0.00000000,0.00000000,0,0,0,0,-255,0,0,0,0,24.3,12.99,3.15657,9.83343
48,91,154,0.397586,34.2533,0,303,0,0.00000000,0.00000000,0,0,0,0,-255,0,0,0,0,24.3,12.99,3.15657,9.83343
49,94,154,0.407566,34.2705,0,300,0,0.00000000,0.00000000,0,0,0,0,-255,0,0,0,0,24.3,12.99,3.15657,9.83343
50,96,155,0.417598,34.2766,0,299,0,0.00000000,0.00000000,0,0,0,0,-255,0,0,0,0,24.1,12.99,3.13059,9.85941
51,96,155,0.427354,34.2763,0,298,0,0.00000000,0.00000000,0,0,0,0,-255,0,0,0,0,24.1,12.99,3.13059,9.85941
52,93,156,0.437225,34.2798,0,299,0,0.00000000,0.00000000,0,0,0,0,-255,0,0,0,0,24,12.99,3.1176,9.8724
53,93,156,0.447031,34.2871,0,299,0,0.00000000,0.00000000,0,0,0,0,-255,0,0,0,0,24,12.99,3.1176,9.8724
54,93,156,0.457156,34.2899,0,299,0,0.00000000,0.00000000,0,0,0,0,-255,0,0,0,0,24,12.99,3.1176,9.8724
55,92,156,0.46496,34.2947,0,301,0,0.00000000,0.00000000,0,0,0,0,-255,0,0,0,0,23.9,13,3.107,9.893
56,94,156,0.474803,34.3026,0,300,0,0.00000000,0.00000000,0,0,0,0,-255,0,0,0,0,23.9,13,3.107,9.893
57,94,157,0.484498,34.3124,0,299,0,0.00000000,0.00000000,0,0,0,0,-255,0,0,0,0,23.9,13,3.107,9.893
58,95,157,0.494307,34.3113,0,299,0,0.00000000,0.00000000,0,0,0,0,-255,0,0,0,0,24,13,3.12,9.88
59,94,157,0.503873,34.3154,0,300,0,0.00000000,0.00000000,0,0,0,0,-255,0,0,0,0,24,13,3.12,9.88
60,93,157,0.513827,34.3155,0,299,0,0.00000000,0.00000000,0,0,0,0,-255,0,0,0,0,24.4,13,3.172,9.828
61,93,158,0.523376,34.3178,0,299,0,0.00000000,0.00000000,0,0,0,0,-255,0,0,0,0,24.7,13,3.211,9.789
62,92,158,0.533159,34.3213,0,300,0,0.00000000,0.00000000,0,0,0,0,-255,0,0,0,0,24.7,13,3.211,9.789
63,92,158,0.542771,34.3253,0,301,0,0.00000000,0.00000000,0,0,0,0,-255,0,0,0,0,24.7,13,3.211,9.789
64,92,158,0.552477,34.3265,0,299,0,0.00000000,0.00000000,0,0,0,0,-255,0,0,0,0,24.7,13,3.211,9.789
65,92,158,0.562253,34.3225,0,298,0,0.00000000,0.00000000,0,0,0,0,-255,0,0,0,0,24.6,12.99,3.19554,9.79446
66,92,159,0.571942,34.3196,0,300,0,0.00000000,0.00000000,0,0,0,0,-255,0,0,0,0,24.6,12.99,3.19554,9.79446
67,92,159,0.581726,34.3233,0,300,0,0.00000000,0.00000000,0,0,0,0,-255,0,0,0,0,24.5,12.99,3.18255,9.80745
68,92,159,0.589564,34.326,0,300,0,0.00000000,0.00000000,0,0,0,0,-255,0,0,0,0,24.5,12.99,3.18255,9.80745
69,92,159,0.599332,34.3335,0,300,0,0.00000000,0.00000000,0,0,0,0,-255,0,0,0,0,24.5,12.99,3.18255,9.80745
70,93,160,0.608967,34.3315,0,299,0,0.00000000,0.00000000,0,0,0,0,-255,0,0,0,0,24.5,12.99,3.18255,9.80745
71,92,160,0.618916,34.325,0,298,0,0.00000000,0.00000000,0,0,0,0,-255,0,0,0,0,24.5,12.99,3.18255,9.80745
72,92,160,0.628659,34.3246,0,300,0,0.00000000,0.00000000,0,0,0,0,-255,0,0,0,0,24.4,13,3.172,9.828
73,91,160,0.638663,34.3269,0,300,0,0.00000000,0.00000000,0,0,0,0,-255,0,0,0,0,24.4,13,3.172,9.828
74,90,161,0.648731,34.3259,0,298,0,0.00000000,0.00000000,0,0,0,0,-255,0,0,0,0,23.9,13,3.107,9.893
75,90,161,0.656534,34.3269,0,299,0,0.00000000,0.00000000,0,0,0,0,-255,0,0,0,0,24.1,13,3.133,9.867
76,90,161,0.666453,34.3295,0,300,0,0.00000000,0.00000000,0,0,0,0,-255,0,0,0,0,24.1,13,3.133,9.867
77,90,161,0.676298,34.3303,0,300,0,0.00000000,0.00000000,0,0,0,0,-255,0,0,0,0,24.1,13,3.133,9.867
78,91,161,0.685938,34.3319,0,300,0,0.00000000,0.00000000,0,0,0,0,-255,0,0,0,0,24.1,13,3.133,9.867
79,91,161,0.695743,34.3347,0,301,0,0.00000000,0.00000000,0,0,0,0,-255,0,0,0,0,23.9,13,3.107,9.893
80,93,161,0.705505,34.3367,0,299,0,0.00000000,0.00000000,0,0,0,0,-255,0,0,0,0,23.9,13,3.107,9.893
81,93,161,0.715325,34.3343,0,298,0,0.00000000,0.00000000,0,0,0,0,-255,0,0,0,0,23.9,13,3.107,9.893
82,92,161,0.725022,34.3314,0,299,0,0.00000000,0.00000000,0,0,0,0,-255,0,0,0,0,23.9,13,3.107,9.893
83,92,162,0.734654,34.3288,0,298,0,0.00000000,0.00000000,0,0,0,0,-255,0,0,0,0,24.7,13,3.211,9.789
84,92,161,0.744379,34.3297,0,300,0,0.00000000,0.00000000,0,0,0,0,-255,0,0,0,0,24.7,13,3.211,9.789
85,92,162,0.752188,34.3304,0,299,0,0.00000000,0.00000000,0,0,0,0,-255,0,0,0,0,25,13,3.25,9.75
86,92,162,0.761873,34.3325,0,300,0,0.00000000,0.00000000,0,0,0,0,-255,0,0,0,0,25,13,3.25,9.75
87,93,162,0.771503,34.3383,0,300,0,0.00000000,0.00000000,0,0,0,0,-255,0,0,0,0,25.6,13,3.328,9.672
88,95,163,0.781195,34.3358,0,299,0,0.00000000,0.00000000,0,0,0,0,-255,0,0,0,0,25.6,13,3.328,9.672
89,95,163,0.790971,34.3355,0,300,0,0.00000000,0.00000000,0,0,0,0,-255,0,0,0,0,26.1,13,3.393,9.607
91,95,163,0.800807,34.3366,0,302,0,0.00000000,0.00000000,0,0,0,0,-255,0,0,0,0,26.1,13,3.393,9.607
92,95,163,0.810965,34.3668,0,309,0,0.00000000,0.00000000,0,0,0,0,-255,0,0,0,0,26.2,13,3.406,9.594
93,93,164,0.82101,34.4086,0,309,0,0.00000000,0.00000000,0,0,0,0,-255,0,0,0,0,26.2,13,3.406,9.594
94,93,164,0.828869,34.4394,0,310,0,0.00000000,0.00000000,0,0,0,0,-255,0,0,0,0,26.2,13,3.406,9.594
95,93,164,0.838769,34.475,0,310,0,0.00000000,0.00000000,0,0,0,0,-255,0,0,0,0,26.3,13,3.419,9.581
96,93,164,0.848613,34.5105,0,311,0,0.00000000,0.00000000,0,0,0,0,-255,0,0,0,0,26.2,13,3.406,9.594
97,94,164,0.8586,34.5345,0,309,0,0.00000000,0.00000000,0,0,0,0,-255,0,0,0,0,26.2,13,3.406,9.594
98,94,165,0.868446,34.5573,0,311,0,0.00000000,0.00000000,0,0,0,0,-255,0,0,0,0,26,13,3.38,9.62
99,94,165,0.878238,34.5766,0,309,0,0.00000000,0.00000000,0,0,0,0,-255,0,0,0,0,26,13,3.38,9.62
100,94,165,0.887985,34.5982,0,309,0,0.00000000,0.00000000,0,0,0,0,-255,0,0,0,0,26.1,13,3.393,9.607
101,94,165,0.897805,34.612,0,309,0,0.00000000,0.00000000,0,0,0,0,-255,0,0,0,0,26.1,13,3.393,9.607
102,94,165,0.907684,34.6272,0,311,0,0.00000000,0.00000000,0,0,0,0,-255,0,0,0,0,26.2,13,3.406,9.594
103,93,166,0.917478,34.6377,0,309,0,0.00000000,0.00000000,0,0,0,0,-255,0,0,0,0,26.2,13,3.406,9.594
104,93,165,0.925346,34.6457,0,310,0,0.00000000,0.00000000,0,0,0,0,-255,0,0,0,0,26.2,13,3.406,9.594
105,93,166,0.935155,34.6569,0,310,0,0.00000000,0.00000000,0,0,0,0,-255,0,0,0,0,26.1,13,3.393,9.607
106,92,166,0.945105,34.667,0,310,0,0.00000000,0.00000000,0,0,0,0,-255,0,0,0,0,25.8,13.01,3.35658,9.65342
107,93,166,0.9552,34.6727,0,309,0,0.00000000,0.00000000,0,0,0,0,-255,0,0,0,0,25.8,13.01,3.35658,9.65342
108,92,166,0.96501,34.6823,0,310,0,0.00000000,0.00000000,0,0,0,0,-255,0,0,0,0,25.5,13.01,3.31755,9.69245
109,91,166,0.974823,34.6883,0,308,0,0.00000000,0.00000000,0,0,0,0,-255,0,0,0,0,25.5,13.01,3.31755,9.69245
110,91,166,0.984832,34.6923,0,310,0,0.00000000,0.00000000,0,0,0,0,-255,0,0,0,0,24.8,13.01,3.22648,9.78352
111,89,166,0.994813,34.6963,0,308,0,0.00000000,0.00000000,0,0,0,0,-255,0,0,0,0,24.8,13.01,3.22648,9.78352
112,89,166,1.00285,34.6915,0,307,0,0.00000000,0.00000000,0,0,0,0,-255,0,0,0,0,24.4,13.01,3.17444,9.83556
113,89,166,1.01282,34.6904,0,311,0,0.00000000,0.00000000,0,0,0,0,-255,0,0,0,0,24.4,13.01,3.17444,9.83556
114,86,166,1.02292,34.7141,0,314,0,0.00000000,0.00000000,0,0,0,0,-255,0,0,0,0,24.2,13.01,3.14842,9.86158
115,91,167,1.03285,34.727,0,311,0,0.00000000,0.00000000,0,0,0,0,-255,0,0,0,0,24.2,13.01,3.14842,9.86158
116,92,166,1.04279,34.7324,0,310,0,0.00000000,0.00000000,0,0,0,0,-255,0,0,0,0,23.7,13.01,3.08337,9.92663
117,92,166,1.05281,34.7343,0,309,0,0.00000000,0.00000000,0,0,0,0,-255,0,0,0,0,23.7,13.01,3.08337,9.92663
118,91,166,1.06062,34.7364,0,310,0,0.00000000,0.00000000,0,0,0,0,-255,0,0,0,0,23.2,13.01,3.01832,9.99168
119,91,166,1.07077,34.7403,0,310,0,0.00000000,0.00000000,0,0,0,0,-255,0,0,0,0,23.2,13.01,3.01832,9.99168
120,92,166,1.08084,34.7423,0,309,0,0.00000000,0.00000000,0,0,0,0,-255,0,0,0,0,23.1,13.01,3.00531,10.0047
121,92,166,1.09082,34.7415,0,310,0,0.00000000,0.00000000,0,0,0,0,-255,0,0,0,0,23.1,13.01,3.00531,10.0047
122,93,166,1.10063,34.7429,0,310,0,0.00000000,0.00000000,0,0,0,0,-255,0,0,0,0,23.3,13.01,3.03133,9.97867
123,92,166,1.11052,34.7478,0,310,0,0.00000000,0.00000000,0,0,0,0,-255,0,0,0,0,23.3,13.01,3.03133,9.97867
124,93,166,1.12038,34.7467,0,310,0,0.00000000,0.00000000,0,0,0,0,-255,0,0,0,0,23.5,13.01,3.05735,9.95265
125,93,166,1.13037,34.7457,0,310,0,0.00000000,0.00000000,0,0,0,0,-255,0,0,0,0,23.5,13.01,3.05735,9.95265
126,93,167,1.13864,34.744,0,309,0,0.00000000,0.00000000,0,0,0,0,-255,0,0,0,0,24,13.01,3.1224,9.8876
127,94,167,1.14868,34.7415,0,309,0,0.00000000,0.00000000,0,0,0,0,-255,0,0,0,0,24,13.01,3.1224,9.8876
128,93,167,1.15855,34.7407,0,310,0,0.00000000,0.00000000,0,0,0,0,-255,0,0,0,0,25,13.01,3.2525,9.7575
129,93,167,1.16841,34.7422,0,310,0,0.00000000,0.00000000,0,0,0,0,-255,0,0,0,0,25,13.01,3.2525,9.7575
130,93,168,1.17849,34.745,0,309,0,0.00000000,0.00000000,0,0,0,0,-255,0,0,0,0,25,13.01,3.2525,9.7575
131,93,168,1.18844,34.7438,0,310,0,0.00000000,0.00000000,0,0,0,0,-255,0,0,0,0,25.6,13.01,3.33056,9.67944
132,93,168,1.19646,34.7423,0,309,0,0.00000000,0.00000000,0,0,0,0,-255,0,0,0,0,25.6,13.01,3.33056,9.67944
133,93,168,1.20652,34.7432,0,310,0,0.00000000,0.00000000,0,0,0,0,-255,0,0,0,0,25.6,13.01,3.33056,9.67944
134,93,169,1.21647,34.7459,0,311,0,0.00000000,0.00000000,0,0,0,0,-255,0,0,0,0,26.2,13.01,3.40862,9.60138
135,93,169,1.22634,34.7512,0,309,0,0.00000000,0.00000000,0,0,0,0,-255,0,0,0,0,26.2,13.01,3.40862,9.60138
136,94,169,1.23636,34.7456,0,308,0,0.00000000,0.00000000,0,0,0,0,-255,0,0,0,0,26.7,13.01,3.47367,9.53633
137,94,169,1.24611,34.7425,0,309,0,0.00000000,0.00000000,0,0,0,0,-255,0,0,0,0,26.7,13.01,3.47367,9.53633
138,93,169,1.25602,34.7484,0,309,0,0.00000000,0.00000000,0,0,0,0,-255,0,0,0,0,27.3,13.01,3.55173,9.45827
139,93,169,1.26592,34.7442,0,310,0,0.00000000,0.00000000,0,0,0,0,-255,0,0,0,0,27.3,13.01,3.55173,9.45827
140,93,169,1.27564,34.7417,0,310,0,0.00000000,0.00000000,0,0,0,0,-255,0,0,0,0,28.4,13.01,3.69484,9.31516
141,92,169,1.28548,34.7446,0,311,0,0.00000000,0.00000000,0,0,0,0,-255,0,0,0,0,28.4,13.01,3.69484,9.31516
142,92,169,1.29328,34.7516,0,311,0,0.00000000,0.00000000,0,0,0,0,-255,0,0,0,0,29.4,13.01,3.82494,9.18506
143,94,169,1.30324,34.7509,0,309,0,0.00000000,0.00000000,0,0,0,0,-255,0,0,0,0,29.4,13.01,3.82494,9.18506
144,95,169,1.31304,34.7473,0,308,0,0.00000000,0.00000000,0,0,0,0,-255,0,0,0,0,29.3,13,3.809,9.191
145,93,169,1.32303,34.7481,0,310,0,0.00000000,0.00000000,0,0,0,0,-255,0,0,0,0,29.3,13,3.809,9.191
146,93,169,1.33298,34.7492,0,309,0,0.00000000,0.00000000,0,0,0,0,-255,0,0,0,0,29.1,13.01,3.78591,9.22409
147,93,169,1.34293,34.7467,0,310,0,0.00000000,0.00000000,0,0,0,0,-255,0,0,0,0,29.1,13.01,3.78591,9.22409
148,93,169,1.35276,34.7493,0,310,0,0.00000000,0.00000000,0,0,0,0,-255,0,0,0,0,28.9,13.01,3.75989,9.25011
149,93,169,1.36261,34.7431,0,309,0,0.00000000,0.00000000,0,0,0,0,-255,0,0,0,0,28.9,13.01,3.75989,9.25011
150,93,169,1.3705,34.7444,0,310,0,0.00000000,0.00000000,0,0,0,0,-255,0,0,0,0,28.2,13.01,3.66882,9.34118
151,93,169,1.38053,34.7456,0,310,0,0.00000000,0.00000000,0,0,0,0,-255,0,0,0,0,28.2,13.01,3.66882,9.34118
152,94,169,1.39034,34.7466,0,310,0,0.00000000,0.00000000,0,0,0,0,-255,0,0,0,0,28.1,13,3.653,9.347
153,93,169,1.40012,34.7452,0,309,0,0.00000000,0.00000000,0,0,0,0,-255,0,0,0,0,28.1,13,3.653,9.347
154,94,169,1.41008,34.7425,0,309,0,0.00000000,0.00000000,0,0,0,0,-255,0,0,0,0,28.5,13,3.705,9.295
155,94,169,1.42009,34.7434,0,310,0,0.00000000,0.00000000,0,0,0,0,-255,0,0,0,0,28.5,13,3.705,9.295
156,93,169,1.43031,34.7414,0,309,0,0.00000000,0.00000000,0,0,0,0,-255,0,0,0,0,29.2,13,3.796,9.204
157,93,169,1.43833,34.7381,0,308,0,0.00000000,0.00000000,0,0,0,0,-255,0,0,0,0,29.2,13,3.796,9.204
158,91,169,1.44836,34.7363,0,310,0,0.00000000,0.00000000,0,0,0,0,-255,0,0,0,0,29.4,13,3.822,9.178
159,91,169,1.45835,34.7398,0,311,0,0.00000000,0.00000000,0,0,0,0,-255,0,0,0,0,29.4,13,3.822,9.178
160,92,170,1.46824,34.7403,0,309,0,0.00000000,0.00000000,0,0,0,0,-255,0,0,0,0,29.6,13,3.848,9.152
161,92,169,1.4781,34.7387,0,310,0,0.00000000,0.00000000,0,0,0,0,-255,0,0,0,0,29.6,13,3.848,9.152
162,92,169,1.48787,34.7431,0,310,0,0.00000000,0.00000000,0,0,0,0,-255,0,0,0,0,29.4,13.01,3.82494,9.18506
163,92,169,1.49776,34.7411,0,309,0,0.00000000,0.00000000,0,0,0,0,-255,0,0,0,0,29.4,13.01,3.82494,9.18506
164,92,170,1.50579,34.7399,0,310,0,0.00000000,0.00000000,0,0,0,0,-255,0,0,0,0,29.2,13.01,3.79892,9.21108
165,91,169,1.51557,34.7424,0,310,0,0.00000000,0.00000000,0,0,0,0,-255,0,0,0,0,29.2,13.01,3.79892,9.21108
166,91,169,1.52545,34.7432,0,309,0,0.00000000,0.00000000,0,0,0,0,-255,0,0,0,0,29,13.02,3.7758,9.2442
167,93,169,1.53535,34.7399,0,309,0,0.00000000,0.00000000,0,0,0,0,-255,0,0,0,0,29,13.02,3.7758,9.2442
168,91,169,1.54536,34.7421,0,310,0,0.00000000,0.00000000,0,0,0,0,-255,0,0,0,0,28.8,13.02,3.74976,9.27024
169,91,169,1.5551,34.7411,0,309,0,0.00000000,0.00000000,0,0,0,0,-255,0,0,0,0,28.8,13.02,3.74976,9.27024
170,91,169,1.56487,34.739,0,309,0,0.00000000,0.00000000,0,0,0,0,-255,0,0,0,0,28.6,13.02,3.72372,9.29628
171,91,169,1.57491,34.7394,0,310,0,0.00000000,0.00000000,0,0,0,0,-255,0,0,0,0,28.6,13.02,3.72372,9.29628
172,91,169,1.58295,34.7415,0,310,0,0.00000000,0.00000000,0,0,0,0,-255,0,0,0,0,28.8,13.02,3.74976,9.27024
173,91,169,1.59275,34.7412,0,310,0,0.00000000,0.00000000,0,0,0,0,-255,0,0,0,0,28.8,13.02,3.74976,9.27024
174,91,169,1.60268,34.7436,0,310,0,0.00000000,0.00000000,0,0,0,0,-255,0,0,0,0,28.6,13.01,3.72086,9.28914
175,92,169,1.61256,34.7393,0,308,0,0.00000000,0.00000000,0,0,0,0,-255,0,0,0,0,28.6,13.01,3.72086,9.28914
176,92,170,1.62268,34.7368,0,309,0,0.00000000,0.00000000,0,0,0,0,-255,0,0,0,0,29,13.01,3.7729,9.2371
177,92,170,1.6325,34.7393,0,310,0,0.00000000,0.00000000,0,0,0,0,-255,0,0,0,0,29,13.01,3.7729,9.2371
178,92,170,1.64248,34.7419,0,310,0,0.00000000,0.00000000,0,0,0,0,-255,0,0,0,0,29.3,13.01,3.81193,9.19807
179,92,170,1.65053,34.7429,0,310,0,0.00000000,0.00000000,0,0,0,0,-255,0,0,0,0,29.3,13.01,3.81193,9.19807
180,93,170,1.66064,34.7451,0,310,0,0.00000000,0.00000000,0,0,0,0,-255,0,0,0,0,29.5,13.01,3.83795,9.17205
181,93,170,1.67039,34.747,0,310,0,0.00000000,0.00000000,0,0,0,0,-255,0,0,0,0,29.5,13.01,3.83795,9.17205
182,93,170,1.68046,34.7655,0,314,0,0.00000000,0.00000000,0,0,0,0,-255,0,0,0,0,29.5,13.02,3.8409,9.1791
183,93,170,1.69021,34.783,0,314,0,0.00000000,0.00000000,0,0,0,0,-255,0,0,0,0,29.5,13.02,3.8409,9.1791
184,93,171,1.7002,34.799,0,314,0,0.00000000,0.00000000,0,0,0,0,-255,0,0,0,0,30,13.02,3.906,9.114
185,93,171,1.71002,34.8289,0,319,0,0.00000000,0.00000000,0,0,0,0,-255,0,0,0,0,30,13.02,3.906,9.114
186,93,171,1.71982,34.8631,0,320,0,0.00000000,0.00000000,0,0,0,0,-255,0,0,0,0,29.5,13.02,3.8409,9.1791
187,93,171,1.72796,34.8898,0,319,0,0.00000000,0.00000000,0,0,0,0,-255,0,0,0,0,29.5,13.02,3.8409,9.1791
188,93,171,1.73802,34.9174,0,319,0,0.00000000,0.00000000,0,0,0,0,-255,0,0,0,0,29.3,13.02,3.81486,9.20514
189,92,171,1.74806,34.95,0,321,0,0.00000000,0.00000000,0,0,0,0,-255,0,0,0,0,29.3,13.02,3.81486,9.20514
190,92,171,1.75802,34.9754,0,320,0,0.00000000,0.00000000,0,0,0,0,-255,0,0,0,0,29.3,13.02,3.81486,9.20514
191,94,172,1.76798,34.9911,0,318,0,0.00000000,0.00000000,0,0,0,0,-255,0,0,0,0,29.2,13.02,3.80184,9.21816
192,94,172,1.77805,35.0058,0,321,0,0.00000000,0.00000000,0,0,0,0,-255,0,0,0,0,29.1,13.02,3.78882,9.23118
193,94,171,1.78614,35.0236,0,320,0,0.00000000,0.00000000,0,0,0,0,-255,0,0,0,0,29.1,13.02,3.78882,9.23118
194,93,172,1.79626,35.0386,0,320,0,0.00000000,0.00000000,0,0,0,0,-255,0,0,0,0,29,13.02,3.7758,9.2442
195,93,172,1.80639,35.052,0,320,0,0.00000000,0.00000000,0,0,0,0,-255,0,0,0,0,29,13.02,3.7758,9.2442
196,93,172,1.8163,35.0613,0,319,0,0.00000000,0.00000000,0,0,0,0,-255,0,0,0,0,29.4,13.02,3.82788,9.19212
197,93,172,1.8263,35.0723,0,320,0,0.00000000,0.00000000,0,0,0,0,-255,0,0,0,0,29.4,13.02,3.82788,9.19212
198,94,172,1.83639,35.0808,0,318,0,0.00000000,0.00000000,0,0,0,0,-255,0,0,0,0,29.3,13.02,3.81486,9.20514
199,95,172,1.84616,35.0837,0,318,0,0.00000000,0.00000000,0,0,0,0,-255,0,0,0,0,29.3,13.02,3.81486,9.20514
200,95,172,1.85434,35.086,0,319,0,0.00000000,0.00000000,0,0,0,0,-255,0,0,0,0,29.2,13.02,3.80184,9.21816
201,93,172,1.86436,35.0907,0,318,0,0.00000000,0.00000000,0,0,0,0,-255,0,0,0,0,29.2,13.02,3.80184,9.21816
202,94,172,1.8742,35.0939,0,319,0,0.00000000,0.00000000,0,0,0,0,-255,0,0,0,0,29.2,13.03,3.80476,9.22524
203,94,172,1.88421,35.0972,0,319,0,0.00000000,0.00000000,0,0,0,0,-255,0,0,0,0,29.2,13.03,3.80476,9.22524
204,92,172,1.89418,35.102,0,319,0,0.00000000,0.00000000,0,0,0,0,-255,0,0,0,0,28.5,13.03,3.71355,9.31645
205,91,172,1.90454,35.1096,0,320,0,0.00000000,0.00000000,0,0,0,0,-255,0,0,0,0,28.5,13.03,3.71355,9.31645
206,91,172,1.91462,35.1175,0,320,0,0.00000000,0.00000000,0,0,0,0,-255,0,0,0,0,27.9,13.03,3.63537,9.39463
207,92,171,1.92447,35.1212,0,319,0,0.00000000,0.00000000,0,0,0,0,-255,0,0,0,0,27.9,13.03,3.63537,9.39463
208,93,171,1.93449,35.12,0,318,0,0.00000000,0.00000000,0,0,0,0,-255,0,0,0,0,27.4,13.03,3.57022,9.45978
209,93,171,1.94444,35.1226,0,321,0,0.00000000,0.00000000,0,0,0,0,-255,0,0,0,0,27.4,13.03,3.57022,9.45978
210,92,171,1.95434,35.1258,0,320,0,0.00000000,0.00000000,0,0,0,0,-255,0,0,0,0,27.1,13.03,3.53113,9.49887
211,92,171,1.96242,35.131,0,320,0,0.00000000,0.00000000,0,0,0,0,-255,0,0,0,0,27.1,13.03,3.53113,9.49887
212,92,171,1.97262,35.1347,0,320,0,0.00000000,0.00000000,0,0,0,0,-255,0,0,0,0,27.1,13.03,3.53113,9.49887
213,94,171,1.98245,35.1392,0,321,0,0.00000000,0.00000000,0,0,0,0,-255,0,0,0,0,27.1,13.03,3.53113,9.49887
214,93,171,1.99235,35.1441,0,322,0,0.00000000,0.00000000,0,0,0,0,-255,0,0,0,0,27.2,13.03,3.54416,9.48584
215,95,171,2.00242,35.146,0,318,0,0.00000000,0.00000000,0,0,0,0,-255,0,0,0,0,27.2,13.03,3.54416,9.48584
216,95,172,2.01263,35.1402,0,319,0,0.00000000,0.00000000,0,0,0,0,-255,0,0,0,0,27.4,13.03,3.57022,9.45978
217,95,172,2.02267,35.1392,0,319,0,0.00000000,0.00000000,0,0,0,0,-255,0,0,0,0,27.4,13.03,3.57022,9.45978
218,93,172,2.03282,35.1374,0,319,0,0.00000000,0.00000000,0,0,0,0,-255,0,0,0,0,28,13.03,3.6484,9.3816
219,92,172,2.04277,35.1398,0,320,0,0.00000000,0.00000000,0,0,0,0,-255,0,0,0,0,28,13.03,3.6484,9.3816
220,93,172,2.0506,35.1419,0,320,0,0.00000000,0.00000000,0,0,0,0,-255,0,0,0,0,28.5,13.03,3.71355,9.31645
221,93,172,2.06057,35.1447,0,319,0,0.00000000,0.00000000,0,0,0,0,-255,0,0,0,0,28.5,13.03,3.71355,9.31645
222,94,172,2.07041,35.1436,0,320,0,0.00000000,0.00000000,0,0,0,0,-255,0,0,0,0,28.7,13.04,3.74248,9.29752
223,94,173,2.08058,35.1426,0,319,0,0.00000000,0.00000000,0,0,0,0,-255,0,0,0,0,28.7,13.04,3.74248,9.29752
224,93,173,2.09054,35.1413,0,319,0,0.00000000,0.00000000,0,0,0,0,-255,0,0,0,0,28.7,13.03,3.73961,9.29039
225,93,173,2.10055,35.1402,0,319,0,0.00000000,0.00000000,0,0,0,0,-255,0,0,0,0,28.7,13.03,3.73961,9.29039
226,93,173,2.11046,35.1423,0,320,0,0.00000000,0.00000000,0,0,0,0,-255,0,0,0,0,29.4,13.03,3.83082,9.19918
227,95,173,2.12055,35.1442,0,321,0,0.00000000,0.00000000,0,0,0,0,-255,0,0,0,0,29.4,13.03,3.83082,9.19918
228,94,173,2.13054,35.1461,0,319,0,0.00000000,0.00000000,0,0,0,0,-255,0,0,0,0,29.3,13.03,3.81779,9.21221
229,94,173,2.14051,35.143,0,318,0,0.00000000,0.00000000,0,0,0,0,-255,0,0,0,0,29.3,13.03,3.81779,9.21221
230,93,173,2.14853,35.1444,0,321,0,0.00000000,0.00000000,0,0,0,0,-255,0,0,0,0,28.9,13.03,3.76567,9.26433
231,93,173,2.15845,35.1469,0,320,0,0.00000000,0.00000000,0,0,0,0,-255,0,0,0,0,28.9,13.03,3.76567,9.26433
232,93,174,2.16858,35.1473,0,319,0,0.00000000,0.00000000,0,0,0,0,-255,0,0,0,0,28.7,13.03,3.73961,9.29039
233,94,173,2.17876,35.1482,0,319,0,0.00000000,0.00000000,0,0,0,0,-255,0,0,0,0,28.7,13.03,3.73961,9.29039
234,94,173,2.18881,35.1494,0,320,0,0.00000000,0.00000000,0,0,0,0,-255,0,0,0,0,28.8,13.03,3.75264,9.27736
235,94,173,2.19879,35.1505,0,321,0,0.00000000,0.00000000,0,0,0,0,-255,0,0,0,0,28.8,13.03,3.75264,9.27736
236,95,173,2.20888,35.1527,0,319,0,0.00000000,0.00000000,0,0,0,0,-255,0,0,0,0,28.6,13.04,3.72944,9.31056
237,96,173,2.21684,35.1517,0,319,0,0.00000000,0.00000000,0,0,0,0,-255,0,0,0,0,28.6,13.04,3.72944,9.31056
238,96,173,2.227,35.1498,0,320,0,0.00000000,0.00000000,0,0,0,0,-255,0,0,0,0,29.1,13.04,3.79464,9.24536
239,95,173,2.23691,35.1473,0,319,0,0.00000000,0.00000000,0,0,0,0,-255,0,0,0,0,29.1,13.04,3.79464,9.24536
240,94,173,2.24688,35.1474,0,321,0,0.00000000,0.00000000,0,0,0,0,-255,0,0,0,0,29.6,13.04,3.85984,9.18016
241,94,173,2.25672,35.1455,0,319,0,0.00000000,0.00000000,0,0,0,0,-255,0,0,0,0,29.6,13.04,3.85984,9.18016
242,94,173,2.26675,35.1435,0,320,0,0.00000000,0.00000000,0,0,0,0,-255,0,0,0,0,29.6,13.04,3.85984,9.18016
243,94,173,2.27669,35.1434,0,319,0,0.00000000,0.00000000,0,0,0,0,-255,0,0,0,0,29.6,13.04,3.85984,9.18016
244,94,173,2.28688,35.1434,0,320,0,0.00000000,0.00000000,0,0,0,0,-255,0,0,0,0,29.2,13.04,3.80768,9.23232
245,94,173,2.29689,35.1425,0,319,0,0.00000000,0.00000000,0,0,0,0,-255,0,0,0,0,29.2,13.04,3.80768,9.23232
246,93,173,2.30477,35.1398,0,319,0,0.00000000,0.00000000,0,0,0,0,-255,0,0,0,0,28.8,13.04,3.75552,9.28448
247,94,173,2.31475,35.1402,0,320,0,0.00000000,0.00000000,0,0,0,0,-255,0,0,0,0,28.8,13.04,3.75552,9.28448
248,93,173,2.32478,35.1386,0,319,0,0.00000000,0.00000000,0,0,0,0,-255,0,0,0,0,28.3,13.04,3.69032,9.34968
249,93,173,2.33481,35.1369,0,319,0,0.00000000,0.00000000,0,0,0,0,-255,0,0,0,0,28.3,13.04,3.69032,9.34968
250,93,174,2.34487,35.1353,0,319,0,0.00000000,0.00000000,0,0,0,0,-255,0,0,0,0,28,13.04,3.6512,9.3888
251,93,173,2.3549,35.1375,0,319,0,0.00000000,0.00000000,0,0,0,0,-255,0,0,0,0,28,13.04,3.6512,9.3888
252,94,173,2.36503,35.1359,0,319,0,0.00000000,0.00000000,0,0,0,0,-255,0,0,0,0,28,13.04,3.6512,9.3888
253,93,174,2.37493,35.1345,0,319,0,0.00000000,0.00000000,0,0,0,0,-255,0,0,0,0,27.8,13.04,3.62512,9.41488
254,93,174,2.38288,35.1361,0,319,0,0.00000000,0.00000000,0,0,0,0,-255,0,0,0,0,28,13.04,3.6512,9.3888
255,92,174,2.39295,35.1392,0,321,0,0.00000000,0.00000000,0,0,0,0,-255,0,0,0,0,28,13.04,3.6512,9.3888
256,92,174,2.40296,35.1374,0,319,0,0.00000000,0.00000000,0,0,0,0,-255,0,0,0,0,28.1,13.04,3.66424,9.37576
257,92,174,2.41321,35.1376,0,319,0,0.00000000,0.00000000,0,0,0,0,-255,0,0,0,0,28.1,13.04,3.66424,9.37576
258,92,174,2.42311,35.1356,0,318,0,0.00000000,0.00000000,0,0,0,0,-255,0,0,0,0,27.8,13.04,3.62512,9.41488
259,91,174,2.43325,35.1305,0,318,0,0.00000000,0.00000000,0,0,0,0,-255,0,0,0,0,27.8,13.04,3.62512,9.41488
260,90,174,2.44316,35.1347,0,321,0,0.00000000,0.00000000,0,0,0,0,-255,0,0,0,0,27.6,13.05,3.6018,9.4482
261,90,174,2.45304,35.137,0,321,0,0.00000000,0.00000000,0,0,0,0,-255,0,0,0,0,27.6,13.05,3.6018,9.4482
262,91,174,2.46294,35.1434,0,319,0,0.00000000,0.00000000,0,0,0,0,-255,0,0,0,0,27.7,13.05,3.61485,9.43515
263,92,174,2.47298,35.1411,0,319,0,0.00000000,0.00000000,0,0,0,0,-255,0,0,0,0,27.7,13.05,3.61485,9.43515
264,92,174,2.48094,35.1399,0,320,0,0.00000000,0.00000000,0,0,0,0,-255,0,0,0,0,27,13.05,3.5235,9.5265
265,93,174,2.49078,35.1477,0,322,0,0.00000000,0.00000000,0,0,0,0,-255,0,0,0,0,27,13.05,3.5235,9.5265
266,95,174,2.50081,35.1534,0,319,0,0.00000000,0.00000000,0,0,0,0,-255,0,0,0,0,26.7,13.05,3.48435,9.56565
267,96,174,2.51065,35.1527,0,319,0,0.00000000,0.00000000,0,0,0,0,-255,0,0,0,0,26.7,13.05,3.48435,9.56565
268,95,174,2.52071,35.1494,0,319,0,0.00000000,0.00000000,0,0,0,0,-255,0,0,0,0,26.5,13.04,3.4556,9.5844
269,94,174,2.5309,35.1455,0,319,0,0.00000000,0.00000000,0,0,0,0,-255,0,0,0,0,26.5,13.04,3.4556,9.5844
270,94,174,2.5413,35.1462,0,320,0,0.00000000,0.00000000,0,0,0,0,-255,0,0,0,0,26.2,13.04,3.41648,9.62352
271,94,174,2.54959,35.1472,0,319,0,0.00000000,0.00000000,0,0,0,0,-255,0,0,0,0,26.2,13.04,3.41648,9.62352
272,95,174,2.55959,35.1445,0,319,0,0.00000000,0.00000000,0,0,0,0,-255,0,0,0,0,26.1,13.04,3.40344,9.63656
273,93,174,2.56968,35.1448,0,319,0,0.00000000,0.00000000,0,0,0,0,-255,0,0,0,0,26.1,13.04,3.40344,9.63656
274,93,173,2.57966,35.1382,0,318,0,0.00000000,0.00000000,0,0,0,0,-255,0,0,0,0,26.7,13.04,3.48168,9.55832
275,92,174,2.58969,35.1634,0,330,0,0.00000000,0.00000000,0,0,0,0,-255,0,0,0,0,26.7,13.04,3.48168,9.55832
276,92,174,2.59981,35.2054,0,329,0,0.00000000,0.00000000,0,0,0,0,-255,0,0,0,0,27.2,13.04,3.54688,9.49312
277,93,174,2.60971,35.2439,0,329,0,0.00000000,0.00000000,0,0,0,0,-255,0,0,0,0,27.2,13.04,3.54688,9.49312
278,93,174,2.61986,35.2735,0,329,0,0.00000000,0.00000000,0,0,0,0,-255,0,0,0,0,27.6,13.04,3.59904,9.44096
279,92,173,2.62796,35.296,0,329,0,0.00000000,0.00000000,0,0,0,0,-255,0,0,0,0,27.6,13.04,3.59904,9.44096
280,91,174,2.63797,35.3232,0,330,0,0.00000000,0.00000000,0,0,0,0,-255,0,0,0,0,27.8,13.04,3.62512,9.41488
281,91,174,2.64814,35.345,0,329,0,0.00000000,0.00000000,0,0,0,0,-255,0,0,0,0,27.8,13.04,3.62512,9.41488
282,91,174,2.65812,35.3657,0,330,0,0.00000000,0.00000000,0,0,0,0,-255,0,0,0,0,28.1,13.05,3.66705,9.38295
283,90,174,2.66812,35.384,0,329,0,0.00000000,0.00000000,0,0,0,0,-255,0,0,0,0,28.1,13.05,3.66705,9.38295
284,90,174,2.67809,35.4039,0,332,0,0.00000000,0.00000000,0,0,0,0,-255,0,0,0,0,28.1,13.05,3.66705,9.38295
285,91,173,2.68821,35.4323,0,331,0,0.00000000,0.00000000,0,0,0,0,-255,0,0,0,0,28.1,13.05,3.66705,9.38295
286,93,174,2.69845,35.4429,0,329,0,0.00000000,0.00000000,0,0,0,0,-255,0,0,0,0,27.4,13.05,3.5757,9.4743
287,94,174,2.70661,35.4488,0,329,0,0.00000000,0.00000000,0,0,0,0,-255,0,0,0,0,27.4,13.05,3.5757,9.4743
288,94,174,2.71686,35.4598,0,330,0,0.00000000,0.00000000,0,0,0,0,-255,0,0,0,0,27,13.05,3.5235,9.5265
289,93,174,2.72718,35.4668,0,329,0,0.00000000,0.00000000,0,0,0,0,-255,0,0,0,0,27,13.05,3.5235,9.5265
290,93,174,2.73718,35.4728,0,330,0,0.00000000,0.00000000,0,0,0,0,-255,0,0,0,0,26.8,13.05,3.4974,9.5526
291,92,174,2.74719,35.481,0,328,0,0.00000000,0.00000000,0,0,0,0,-255,0,0,0,0,26.8,13.05,3.4974,9.5526
292,93,174,2.7572,35.4885,0,330,0,0.00000000,0.00000000,0,0,0,0,-255,0,0,0,0,26.2,13.05,3.4191,9.6309
293,93,174,2.76734,35.4961,0,330,0,0.00000000,0.00000000,0,0,0,0,-255,0,0,0,0,26.2,13.05,3.4191,9.6309
294,92,174,2.77732,35.5027,0,330,0,0.00000000,0.00000000,0,0,0,0,-255,0,0,0,0,25.7,13.05,3.35385,9.69615
295,92,174,2.78743,35.5063,0,327,0,0.00000000,0.00000000,0,0,0,0,-255,0,0,0,0,25.7,13.05,3.35385,9.69615
296,92,174,2.79746,35.507,0,330,0,0.00000000,0.00000000,0,0,0,0,-255,0,0,0,0,26,13.05,3.393,9.657
297,92,175,2.80552,35.5115,0,332,0,0.00000000,0.00000000,0,0,0,0,-255,0,0,0,0,26,13.05,3.393,9.657
298,92,175,2.81612,35.5165,0,328,0,0.00000000,0.00000000,0,0,0,0,-255,0,0,0,0,26.2,13.05,3.4191,9.6309
299,92,175,2.8263,35.5151,0,329,0,0.00000000,0.00000000,0,0,0,0,-255,0,0,0,0,26.2,13.05,3.4191,9.6309
300,92,175,2.83661,35.5185,0,330,0,0.00000000,0.00000000,0,0,0,0,-255,0,0,0,0,26.3,13.05,3.43215,9.61785
301,92,175,2.84662,35.5203,0,329,0,0.00000000,0.00000000,0,0,0,0,-255,0,0,0,0,26.3,13.05,3.43215,9.61785
302,92,176,2.85662,35.5282,0,332,0,0.00000000,0.00000000,0,0,0,0,-255,0,0,0,0,26.8,13.05,3.4974,9.5526
303,93,176,2.86677,35.5437,0,332,0,0.00000000,0.00000000,0,0,0,0,-255,0,0,0,0,26.8,13.05,3.4974,9.5526
304,97,176,2.87697,35.5498,0,329,0,0.00000000,0.00000000,0,0,0,0,-255,0,0,0,0,27.2,13.05,3.5496,9.5004
305,98,176,2.88511,35.5466,0,329,0,0.00000000,0.00000000,0,0,0,0,-255,0,0,0,0,27.2,13.05,3.5496,9.5004
306,98,176,2.89538,35.549,0,330,0,0.00000000,0.00000000,0,0,0,0,-255,0,0,0,0,26.8,13.05,3.4974,9.5526
307,98,176,2.9053,35.5444,0,328,0,0.00000000,0.00000000,0,0,0,0,-255,0,0,0,0,26.8,13.05,3.4974,9.5526
308,97,176,2.91544,35.5398,0,329,0,0.00000000,0.00000000,0,0,0,0,-255,0,0,0,0,26.5,13.05,3.45825,9.59175
309,96,176,2.92547,35.5375,0,330,0,0.00000000,0.00000000,0,0,0,0,-255,0,0,0,0,26.5,13.05,3.45825,9.59175
310,96,176,2.93556,35.5355,0,329,0,0.00000000,0.00000000,0,0,0,0,-255,0,0,0,0,26.4,13.05,3.4452,9.6048
311,96,176,2.9458,35.5332,0,329,0,0.00000000,0.00000000,0,0,0,0,-255,0,0,0,0,26.4,13.05,3.4452,9.6048
312,95,176,2.95585,35.5335,0,330,0,0.00000000,0.00000000,0,0,0,0,-255,0,0,0,0,26.3,13.05,3.43215,9.61785
313,95,176,2.96581,35.5367,0,330,0,0.00000000,0.00000000,0,0,0,0,-255,0,0,0,0,26.3,13.05,3.43215,9.61785
314,95,176,2.97596,35.5396,0,330,0,0.00000000,0.00000000,0,0,0,0,-255,0,0,0,0,26.6,13.05,3.4713,9.5787
315,96,176,2.98618,35.5414,0,330,0,0.00000000,0.00000000,0,0,0,0,-255,0,0,0,0,27.3,13.05,3.56265,9.48735
316,96,176,2.99414,35.5382,0,328,0,0.00000000,0.00000000,0,0,0,0,-255,0,0,0,0,27.3,13.05,3.56265,9.48735
317,95,176,3.00432,35.5374,0,330,0,0.00000000,0.00000000,0,0,0,0,-255,0,0,0,0,27.3,13.05,3.56265,9.48735
318,95,176,3.01449,35.5403,0,330,0,0.00000000,0.00000000,0,0,0,0,-255,0,0,0,0,27.8,13.05,3.6279,9.4221
319,94,176,3.0245,35.5378,0,329,0,0.00000000,0.00000000,0,0,0,0,-255,0,0,0,0,27.8,13.05,3.6279,9.4221
320,94,176,3.03473,35.5362,0,329,0,0.00000000,0.00000000,0,0,0,0,-255,0,0,0,0,28.2,13.05,3.6801,9.3699
321,94,177,3.04488,35.5365,0,331,0,0.00000000,0.00000000,0,0,0,0,-255,0,0,0,0,28.2,13.05,3.6801,9.3699
322,94,176,3.05517,35.5431,0,329,0,0.00000000,0.00000000,0,0,0,0,-255,0,0,0,0,28,13.05,3.654,9.396
323,94,177,3.06515,35.536,0,328,0,0.00000000,0.00000000,0,0,0,0,-255,0,0,0,0,28.2,13.05,3.6801,9.3699
324,93,177,3.07349,35.5382,0,331,0,0.00000000,0.00000000,0,0,0,0,-255,0,0,0,0,28.2,13.05,3.6801,9.3699
325,93,177,3.08346,35.5392,0,329,0,0.00000000,0.00000000,0,0,0,0,-255,0,0,0,0,28.2,13.05,3.6801,9.3699
326,93,177,3.09366,35.5382,0,329,0,0.00000000,0.00000000,0,0,0,0,-255,0,0,0,0,27.8,13.04,3.62512,9.41488
327,94,177,3.10375,35.534,0,329,0,0.00000000,0.00000000,0,0,0,0,-255,0,0,0,0,27.8,13.04,3.62512,9.41488
328,93,176,3.11388,35.531,0,329,0,0.00000000,0.00000000,0,0,0,0,-255,0,0,0,0,27.6,13.04,3.59904,9.44096
329,93,177,3.124,35.535,0,330,0,0.00000000,0.00000000,0,0,0,0,-255,0,0,0,0,27.6,13.04,3.59904,9.44096
330,93,177,3.13395,35.5342,0,329,0,0.00000000,0.00000000,0,0,0,0,-255,0,0,0,0,27,13.05,3.5235,9.5265
331,94,177,3.14391,35.5338,0,329,0,0.00000000,0.00000000,0,0,0,0,-255,0,0,0,0,27,13.05,3.5235,9.5265
332,94,176,3.15403,35.2369,0,330,0,0.00000000,0.00000000,0,0,0,0,-255,0,0,0,0,26.9,13.05,3.51045,9.53955
333,94,176,3.16244,35.2677,0,330,0,0.00000000,0.00000000,0,0,0,0,-255,0,0,0,0,26.9,13.05,3.51045,9.53955
334,94,176,3.17283,35.2991,0,329,0,0.00000000,0.00000000,0,0,0,0,-255,0,0,0,0,26.4,13.05,3.4452,9.6048
335,94,177,3.18296,35.3255,0,330,0,0.00000000,0.00000000,0,0,0,0,-255,0,0,0,0,26.4,13.05,3.4452,9.6048
336,94,177,3.19314,35.3555,0,330,0,0.00000000,0.00000000,0,0,0,0,-255,0,0,0,0,26.4,13.06,3.44784,9.61216
337,94,176,3.20318,35.3765,0,330,0,0.00000000,0.00000000,0,0,0,0,-255,0,0,0,0,26,13.06,3.3956,9.6644
338,94,176,3.21332,35.3929,0,329,0,0.00000000,0.00000000,0,0,0,0,-255,0,0,0,0,26,13.06,3.3956,9.6644
339,94,177,3.2232,35.4106,0,330,0,0.00000000,0.00000000,0,0,0,0,-255,0,0,0,0,25.9,13.05,3.37995,9.67005
340,93,177,3.23318,35.4229,0,329,0,0.00000000,0.00000000,0,0,0,0,-255,0,0,0,0,25.9,13.05,3.37995,9.67005
341,93,177,3.24124,35.4315,0,329,0,0.00000000,0.00000000,0,0,0,0,-255,0,0,0,0,25.9,13.05,3.37995,9.67005
342,94,177,3.25144,35.4464,0,330,0,0.00000000,0.00000000,0,0,0,0,-255,0,0,0,0,25.7,13.06,3.35642,9.70358
343,94,177,3.26145,35.4586,0,330,0,0.00000000,0.00000000,0,0,0,0,-255,0,0,0,0,25.7,13.06,3.35642,9.70358
344,93,177,3.2714,35.4672,0,329,0,0.00000000,0.00000000,0,0,0,0,-255,0,0,0,0,25.6,13.06,3.34336,9.71664
345,92,177,3.28135,35.4717,0,329,0,0.00000000,0.00000000,0,0,0,0,-255,0,0,0,0,25.6,13.06,3.34336,9.71664
346,92,177,3.29155,35.48,0,330,0,0.00000000,0.00000000,0,0,0,0,-255,0,0,0,0,25.5,13.06,3.3303,9.7297
347,92,177,3.30178,35.4886,0,330,0,0.00000000,0.00000000,0,0,0,0,-255,0,0,0,0,25.7,13.06,3.35642,9.70358
348,91,177,3.31184,35.4929,0,329,0,0.00000000,0.00000000,0,0,0,0,-255,0,0,0,0,25.7,13.06,3.35642,9.70358
349,91,177,3.32194,35.4979,0,330,0,0.00000000,0.00000000,0,0,0,0,-255,0,0,0,0,25.8,13.06,3.36948,9.69052
350,92,177,3.32992,35.5031,0,330,0,0.00000000,0.00000000,0,0,0,0,-255,0,0,0,0,25.8,13.06,3.36948,9.69052
351,93,177,3.34032,35.5067,0,329,0,0.00000000,0.00000000,0,0,0,0,-255,0,0,0,0,25.8,13.06,3.36948,9.69052
352,93,177,3.35036,35.5046,0,328,0,0.00000000,0.00000000,0,0,0,0,-255,0,0,0,0,25.9,13.06,3.38254,9.67746
353,92,177,3.36068,35.506,0,330,0,0.00000000,0.00000000,0,0,0,0,-255,0,0,0,0,25.7,13.05,3.35385,9.69615
354,91,177,3.37083,35.5093,0,329,0,0.00000000,0.00000000,0,0,0,0,-255,0,0,0,0,25.7,13.05,3.35385,9.69615
355,91,177,3.38098,35.5169,0,332,0,0.00000000,0.00000000,0,0,0,0,-255,0,0,0,0,25.4,13.05,3.3147,9.7353
356,92,177,3.39114,35.5224,0,329,0,0.00000000,0.00000000,0,0,0,0,-255,0,0,0,0,25.4,13.05,3.3147,9.7353
357,92,177,3.39912,35.5204,0,328,0,0.00000000,0.00000000,0,0,0,0,-255,0,0,0,0,25.4,13.05,3.3147,9.7353
358,91,177,3.40947,35.5205,0,331,0,0.00000000,0.00000000,0,0,0,0,-255,0,0,0,0,24.8,13.06,3.23888,9.82112
359,91,176,3.41965,35.5231,0,330,0,0.00000000,0.00000000,0,0,0,0,-255,0,0,0,0,24.8,13.06,3.23888,9.82112
360,92,176,3.42977,35.5267,0,330,0,0.00000000,0.00000000,0,0,0,0,-255,0,0,0,0,24,13.06,3.1344,9.9256
361,92,176,3.43987,35.5245,0,330,0,0.00000000,0.00000000,0,0,0,0,-255,0,0,0,0,24,13.06,3.1344,9.9256
362,93,175,3.44978,35.5529,0,339,0,0.00000000,0.00000000,0,0,0,0,-255,0,0,0,0,23.2,13.07,3.03224,10.0378
363,92,175,3.46003,35.5966,0,340,0,0.00000000,0.00000000,0,0,0,0,-255,0,0,0,0,21.9,13.07,2.86233,10.2077
364,93,175,3.4701,35.6374,0,340,0,0.00000000,0.00000000,0,0,0,0,-255,0,0,0,0,21.9,13.07,2.86233,10.2077
365,94,175,3.48026,35.6676,0,338,0,0.00000000,0.00000000,0,0,0,0,-255,0,0,0,0,21.9,13.07,2.86233,10.2077
366,94,175,3.49048,35.7002,0,342,0,0.00000000,0.00000000,0,0,0,0,-255,0,0,0,0,21.2,13.07,2.77084,10.2992
367,94,175,3.50076,35.7314,0,338,0,0.00000000,0.00000000,0,0,0,0,-255,0,0,0,0,21,13.07,2.7447,10.3253
368,93,175,3.50877,35.7443,0,338,0,0.00000000,0.00000000,0,0,0,0,-255,0,0,0,0,21,13.07,2.7447,10.3253
369,91,176,3.51904,35.7611,0,339,0,0.00000000,0.00000000,0,0,0,0,-255,0,0,0,0,21.2,13.07,2.77084,10.2992
370,91,176,3.52914,35.7766,0,340,0,0.00000000,0.00000000,0,0,0,0,-255,0,0,0,0,21.2,13.07,2.77084,10.2992
371,91,176,3.53922,35.7951,0,340,0,0.00000000,0.00000000,0,0,0,0,-255,0,0,0,0,21.2,13.07,2.77084,10.2992
372,92,176,3.54957,35.8146,0,342,0,0.00000000,0.00000000,0,0,0,0,-255,0,0,0,0,21.5,13.06,2.8079,10.2521
373,93,177,3.55979,35.8264,0,339,0,0.00000000,0.00000000,0,0,0,0,-255,0,0,0,0,22.2,13.06,2.89932,10.1607
374,94,177,3.57,35.8358,0,339,0,0.00000000,0.00000000,0,0,0,0,-255,0,0,0,0,22.2,13.06,2.89932,10.1607
375,93,177,3.58027,35.8473,0,340,0,0.00000000,0.00000000,0,0,0,0,-255,0,0,0,0,22.2,13.06,2.89932,10.1607
376,93,177,3.59048,35.8587,0,340,0,0.00000000,0.00000000,0,0,0,0,-255,0,0,0,0,22.2,13.06,2.89932,10.1607
377,93,177,3.60056,35.8617,0,340,0,0.00000000,0.00000000,0,0,0,0,-255,0,0,0,0,22.6,13.06,2.95156,10.1084
378,93,178,3.60883,35.868,0,340,0,0.00000000,0.00000000,0,0,0,0,-255,0,0,0,0,22.6,13.06,2.95156,10.1084
379,94,178,3.61896,35.8761,0,340,0,0.00000000,0.00000000,0,0,0,0,-255,0,0,0,0,22.5,13.06,2.9385,10.1215
380,93,178,3.62904,35.8831,0,340,0,0.00000000,0.00000000,0,0,0,0,-255,0,0,0,0,22.5,13.06,2.9385,10.1215
381,93,178,3.63924,35.8952,0,339,0,0.00000000,0.00000000,0,0,0,0,-255,0,0,0,0,22.5,13.06,2.9385,10.1215
382,94,178,3.64997,35.8925,0,338,0,0.00000000,0.00000000,0,0,0,0,-255,0,0,0,0,22.4,13.06,2.92544,10.1346
383,93,179,3.66018,35.8934,0,340,0,0.00000000,0.00000000,0,0,0,0,-255,0,0,0,0,22.4,13.06,2.92544,10.1346
384,92,179,3.6686,35.9009,0,341,0,0.00000000,0.00000000,0,0,0,0,-255,0,0,0,0,22.6,13.06,2.95156,10.1084
385,93,179,3.67897,35.9079,0,341,0,0.00000000,0.00000000,0,0,0,0,-255,0,0,0,0,22.6,13.06,2.95156,10.1084
386,94,178,3.68924,35.9113,0,339,0,0.00000000,0.00000000,0,0,0,0,-255,0,0,0,0,23,13.06,3.0038,10.0562
387,94,179,3.69947,35.9091,0,339,0,0.00000000,0.00000000,0,0,0,0,-255,0,0,0,0,23.4,13.05,3.0537,9.9963
388,93,178,3.70985,35.9068,0,340,0,0.00000000,0.00000000,0,0,0,0,-255,0,0,0,0,23.4,13.05,3.0537,9.9963
389,93,178,3.72013,35.9043,0,338,0,0.00000000,0.00000000,0,0,0,0,-255,0,0,0,0,23.7,13.05,3.09285,9.95715
390,93,179,3.73033,35.9034,0,339,0,0.00000000,0.00000000,0,0,0,0,-255,0,0,0,0,23.7,13.05,3.09285,9.95715
391,93,179,3.74039,35.903,0,339,0,0.00000000,0.00000000,0,0,0,0,-255,0,0,0,0,23.9,13.05,3.11895,9.93105
392,93,179,3.75072,35.905,0,340,0,0.00000000,0.00000000,0,0,0,0,-255,0,0,0,0,23.9,13.05,3.11895,9.93105
393,93,179,3.75878,35.9103,0,341,0,0.00000000,0.00000000,0,0,0,0,-255,0,0,0,0,23.9,13.05,3.11895,9.93105
394,93,179,3.7689,35.9091,0,339,0,0.00000000,0.00000000,0,0,0,0,-255,0,0,0,0,24.2,13.06,3.16052,9.89948
395,94,179,3.77926,35.9094,0,340,0,0.00000000,0.00000000,0,0,0,0,-255,0,0,0,0,24.1,13.06,3.14746,9.91254
396,94,178,3.7898,35.9131,0,339,0,0.00000000,0.00000000,0,0,0,0,-255,0,0,0,0,24.1,13.06,3.14746,9.91254
397,94,179,3.80023,35.9084,0,336,0,0.00000000,0.00000000,0,0,0,0,-255,0,0,0,0,23.4,13.06,3.05604,10.004
398,91,179,3.81072,35.905,0,342,0,0.00000000,0.00000000,0,0,0,0,-255,0,0,0,0,23.4,13.06,3.05604,10.004
399,91,179,3.82093,35.9176,0,342,0,0.00000000,0.00000000,0,0,0,0,-255,0,0,0,0,23.2,13.06,3.02992,10.0301
400,91,179,3.82931,35.9222,0,340,0,0.00000000,0.00000000,0,0,0,0,-255,0,0,0,0,23.2,13.06,3.02992,10.0301
401,90,180,3.8394,35.9235,0,339,0,0.00000000,0.00000000,0,0,0,0,-255,0,0,0,0,23.2,13.06,3.02992,10.0301
402,91,180,3.84958,35.9262,0,341,0,0.00000000,0.00000000,0,0,0,0,-255,0,0,0,0,22.8,13.06,2.97768,10.0823
403,92,179,3.85993,35.9289,0,340,0,0.00000000,0.00000000,0,0,0,0,-255,0,0,0,0,22.4,13.05,2.9232,10.1268
404,93,179,3.87007,35.9256,0,340,0,0.00000000,0.00000000,0,0,0,0,-255,0,0,0,0,22.4,13.05,2.9232,10.1268
405,92,179,3.88031,35.9306,0,340,0,0.00000000,0.00000000,0,0,0,0,-255,0,0,0,0,22.2,13.05,2.8971,10.1529
406,93,179,3.89052,35.9283,0,339,0,0.00000000,0.00000000,0,0,0,0,-255,0,0,0,0,22.2,13.05,2.8971,10.1529
407,93,179,3.89892,35.9265,0,339,0,0.00000000,0.00000000,0,0,0,0,-255,0,0,0,0,22.1,13.06,2.88626,10.1737
408,93,179,3.90939,35.9275,0,340,0,0.00000000,0.00000000,0,0,0,0,-255,0,0,0,0,22.1,13.06,2.88626,10.1737
409,95,178,3.91951,35.9305,0,340,0,0.00000000,0.00000000,0,0,0,0,-255,0,0,0,0,22.1,13.06,2.88626,10.1737
410,95,178,3.92975,35.9314,0,340,0,0.00000000,0.00000000,0,0,0,0,-255,0,0,0,0,21.5,13.06,2.8079,10.2521
411,94,179,3.93993,35.9285,0,338,0,0.00000000,0.00000000,0,0,0,0,-255,0,0,0,0,21,13.06,2.7426,10.3174
412,94,178,3.95028,35.9235,0,340,0,0.00000000,0.00000000,0,0,0,0,-255,0,0,0,0,21,13.06,2.7426,10.3174
413,94,178,3.96059,35.9222,0,339,0,0.00000000,0.00000000,0,0,0,0,-255,0,0,0,0,20.9,13.06,2.72954,10.3305
414,95,178,3.96919,35.92,0,339,0,0.00000000,0.00000000,0,0,0,0,-255,0,0,0,0,20.9,13.06,2.72954,10.3305
415,95,179,3.97926,35.9213,0,339,0,0.00000000,0.00000000,0,0,0,0,-255,0,0,0,0,21.1,13.06,2.75566,10.3043
416,93,179,3.98966,35.9188,0,339,0,0.00000000,0.00000000,0,0,0,0,-255,0,0,0,0,21.1,13.06,2.75566,10.3043
417,92,178,3.9998,35.9167,0,339,0,0.00000000,0.00000000,0,0,0,0,-255,0,0,0,0,21.4,13.06,2.79484,10.2652
418,92,179,4.01014,35.9142,0,338,0,0.00000000,0.00000000,0,0,0,0,-255,0,0,0,0,21.4,13.06,2.79484,10.2652
419,92,179,4.02026,35.9161,0,340,0,0.00000000,0.00000000,0,0,0,0,-255,0,0,0,0,22,13.06,2.8732,10.1868
421,92,179,4.03036,35.9182,0,339,0,0.00000000,0.00000000,0,0,0,0,-255,0,0,0,0,22,13.06,2.8732,10.1868
422,93,179,4.04056,35.9188,0,341,0,0.00000000,0.00000000,0,0,0,0,-255,0,0,0,0,22.9,13.06,2.99074,10.0693
423,93,179,4.05064,35.9196,0,338,0,0.00000000,0.00000000,0,0,0,0,-255,0,0,0,0,22.9,13.06,2.99074,10.0693
424,93,179,4.06088,35.9166,0,340,0,0.00000000,0.00000000,0,0,0,0,-255,0,0,0,0,23,13.06,3.0038,10.0562
425,93,179,4.07095,35.9212,0,339,0,0.00000000,0.00000000,0,0,0,0,-255,0,0,0,0,23,13.06,3.0038,10.0562
426,92,179,4.07907,35.9161,0,338,0,0.00000000,0.00000000,0,0,0,0,-255,0,0,0,0,22,13.07,2.8754,10.1946
427,92,179,4.08924,35.9147,0,339,0,0.00000000,0.00000000,0,0,0,0,-255,0,0,0,0,22,13.07,2.8754,10.1946
428,92,179,4.09957,35.9162,0,340,0,0.00000000,0.00000000,0,0,0,0,-255,0,0,0,0,21,13.07,2.7447,10.3253
429,92,179,4.10991,35.9139,0,339,0,0.00000000,0.00000000,0,0,0,0,-255,0,0,0,0,21,13.07,2.7447,10.3253
430,92,179,4.12003,35.9128,0,340,0,0.00000000,0.00000000,0,0,0,0,-255,0,0,0,0,19.7,13.07,2.57479,10.4952
431,91,179,4.13015,35.9157,0,340,0,0.00000000,0.00000000,0,0,0,0,-255,0,0,0,0,19.7,13.07,2.57479,10.4952
432,91,179,4.14041,35.9183,0,340,0,0.00000000,0.00000000,0,0,0,0,-255,0,0,0,0,19.7,13.07,2.57479,10.4952
433,91,178,4.15067,35.9246,0,341,0,0.00000000,0.00000000,0,0,0,0,-255,0,0,0,0,19,13.07,2.4833,10.5867
434,93,178,4.16094,35.9238,0,338,0,0.00000000,0.00000000,0,0,0,0,-255,0,0,0,0,17.9,13.06,2.33774,10.7223
435,92,178,4.17141,35.9197,0,339,0,0.00000000,0.00000000,0,0,0,0,-255,0,0,0,0,17.9,13.06,2.33774,10.7223
436,90,179,4.17963,35.9179,0,339,0,0.00000000,0.00000000,0,0,0,0,-255,0,0,0,0,18.7,13.07,2.44409,10.6259
437,91,179,4.18967,35.9181,0,340,0,0.00000000,0.00000000,0,0,0,0,-255,0,0,0,0,18.7,13.07,2.44409,10.6259
438,91,179,4.20008,35.9155,0,339,0,0.00000000,0.00000000,0,0,0,0,-255,0,0,0,0,18.8,13.07,2.45716,10.6128
439,92,179,4.21027,35.919,0,341,0,0.00000000,0.00000000,0,0,0,0,-255,0,0,0,0,18.8,13.07,2.45716,10.6128
440,92,179,4.22048,35.9186,0,341,0,0.00000000,0.00000000,0,0,0,0,-255,0,0,0,0,19.7,13.07,2.57479,10.4952
441,92,178,4.23069,35.9253,0,341,0,0.00000000,0.00000000,0,0,0,0,-255,0,0,0,0,19.7,13.07,2.57479,10.4952
442,93,178,4.24083,35.925,0,339,0,0.00000000,0.00000000,0,0,0,0,-255,0,0,0,0,19.7,13.07,2.57479,10.4952
443,93,178,4.25112,35.919,0,338,0,0.00000000,0.00000000,0,0,0,0,-255,0,0,0,0,19.3,13.07,2.52251,10.5475
444,92,178,4.26143,35.9188,0,340,0,0.00000000,0.00000000,0,0,0,0,-255,0,0,0,0,20.1,13.07,2.62707,10.4429
445,92,179,4.27167,35.9197,0,339,0,0.00000000,0.00000000,0,0,0,0,-255,0,0,0,0,20.1,13.07,2.62707,10.4429
446,93,179,4.28186,35.9218,0,341,0,0.00000000,0.00000000,0,0,0,0,-255,0,0,0,0,19.4,13.07,2.53558,10.5344
447,93,179,4.28999,35.9215,0,337,0,0.00000000,0.00000000,0,0,0,0,-255,0,0,0,0,19.4,13.07,2.53558,10.5344
448,93,179,4.30025,35.9174,0,341,0,0.00000000,0.00000000,0,0,0,0,-255,0,0,0,0,19.7,13.07,2.57479,10.4952
449,93,179,4.3105,35.9242,0,341,0,0.00000000,0.00000000,0,0,0,0,-255,0,0,0,0,19.7,13.07,2.57479,10.4952
450,94,179,4.32113,35.9258,0,339,0,0.00000000,0.00000000,0,0,0,0,-255,0,0,0,0,19.8,13.07,2.58786,10.4821
451,94,179,4.3315,35.9269,0,340,0,0.00000000,0.00000000,0,0,0,0,-255,0,0,0,0,19.8,13.07,2.58786,10.4821
452,95,179,4.34171,35.9313,0,339,0,0.00000000,0.00000000,0,0,0,0,-255,0,0,0,0,20.4,13.07,2.66628,10.4037
453,96,179,4.35204,35.9426,0,349,0,0.00000000,0.00000000,0,0,0,0,-255,0,0,0,0,20.4,13.07,2.66628,10.4037
454,96,179,4.36217,35.9824,0,350,0,0.00000000,0.00000000,0,0,0,0,-255,0,0,0,0,20.4,13.07,2.66628,10.4037
455,95,180,4.37236,36.0146,0,348,0,0.00000000,0.00000000,0,0,0,0,-255,0,0,0,0,20.4,13.07,2.66628,10.4037
456,94,180,4.38047,36.0387,0,349,0,0.00000000,0.00000000,0,0,0,0,-255,0,0,0,0,21.1,13.07,2.75777,10.3122
457,93,180,4.39092,36.0679,0,351,0,0.00000000,0.00000000,0,0,0,0,-255,0,0,0,0,21.1,13.07,2.75777,10.3122
458,93,180,4.40115,36.095,0,348,0,0.00000000,0.00000000,0,0,0,0,-255,0,0,0,0,20.8,13.07,2.71856,10.3514
459,94,180,4.41139,36.1197,0,350,0,0.00000000,0.00000000,0,0,0,0,-255,0,0,0,0,20.8,13.07,2.71856,10.3514
460,93,180,4.42182,36.1426,0,350,0,0.00000000,0.00000000,0,0,0,0,-255,0,0,0,0,20,13.07,2.614,10.456
461,93,180,4.43208,36.1626,0,350,0,0.00000000,0.00000000,0,0,0,0,-255,0,0,0,0,20,13.07,2.614,10.456
462,93,180,4.44226,36.1801,0,350,0,0.00000000,0.00000000,0,0,0,0,-255,0,0,0,0,18.8,13.07,2.45716,10.6128
463,93,180,4.45259,36.1957,0,350,0,0.00000000,0.00000000,0,0,0,0,-255,0,0,0,0,18.8,13.07,2.45716,10.6128
464,92,180,4.46089,36.2039,0,349,0,0.00000000,0.00000000,0,0,0,0,-255,0,0,0,0,18.8,13.07,2.45716,10.6128
465,92,180,4.47109,36.2179,0,350,0,0.00000000,0.00000000,0,0,0,0,-255,0,0,0,0,17.9,13.07,2.33953,10.7305
466,92,180,4.48143,36.2292,0,350,0,0.00000000,0.00000000,0,0,0,0,-255,0,0,0,0,17.1,13.06,2.23326,10.8267
467,92,180,4.49158,36.2372,0,350,0,0.00000000,0.00000000,0,0,0,0,-255,0,0,0,0,17.1,13.06,2.23326,10.8267
468,92,180,4.50181,36.2522,0,350,0,0.00000000,0.00000000,0,0,0,0,-255,0,0,0,0,17.1,13.06,2.23326,10.8267
469,92,181,4.51233,36.2514,0,348,0,0.00000000,0.00000000,0,0,0,0,-255,0,0,0,0,17.3,13.06,2.25938,10.8006
470,93,181,4.52264,36.2509,0,348,0,0.00000000,0.00000000,0,0,0,0,-255,0,0,0,0,17.9,13.06,2.33774,10.7223
471,92,180,4.53279,36.2539,0,348,0,0.00000000,0.00000000,0,0,0,0,-255,0,0,0,0,17.9,13.06,2.33774,10.7223
472,91,180,4.54335,36.2553,0,351,0,0.00000000,0.00000000,0,0,0,0,-255,0,0,0,0,18.1,13.06,2.36386,10.6961
473,90,181,4.55353,36.2621,0,349,0,0.00000000,0.00000000,0,0,0,0,-255,0,0,0,0,18.1,13.06,2.36386,10.6961
474,90,181,4.56388,36.2642,0,348,0,0.00000000,0.00000000,0,0,0,0,-255,0,0,0,0,18.4,13.06,2.40304,10.657
475,90,181,4.57214,36.2681,0,350,0,0.00000000,0.00000000,0,0,0,0,-255,0,0,0,0,18.4,13.06,2.40304,10.657
476,91,181,4.58244,36.2704,0,349,0,0.00000000,0.00000000,0,0,0,0,-255,0,0,0,0,18.3,13.06,2.38998,10.67
477,92,181,4.5926,36.2749,0,350,0,0.00000000,0.00000000,0,0,0,0,-255,0,0,0,0,18.3,13.06,2.38998,10.67
478,92,181,4.60312,36.2792,0,351,0,0.00000000,0.00000000,0,0,0,0,-255,0,0,0,0,17.9,13.06,2.33774,10.7223
479,94,181,4.6134,36.2894,0,351,0,0.00000000,0.00000000,0,0,0,0,-255,0,0,0,0,17.9,13.06,2.33774,10.7223
480,94,181,4.6236,36.2927,0,350,0,0.00000000,0.00000000,0,0,0,0,-255,0,0,0,0,17.3,13.07,2.26111,10.8089
481,95,181,4.63414,36.2913,0,349,0,0.00000000,0.00000000,0,0,0,0,-255,0,0,0,0,17.3,13.07,2.26111,10.8089
482,94,181,4.64454,36.2896,0,349,0,0.00000000,0.00000000,0,0,0,0,-255,0,0,0,0,17.1,13.07,2.23497,10.835
483,93,181,4.65492,36.2912,0,350,0,0.00000000,0.00000000,0,0,0,0,-255,0,0,0,0,17.1,13.07,2.23497,10.835
484,93,181,4.66331,36.2925,0,348,0,0.00000000,0.00000000,0,0,0,0,-255,0,0,0,0,17.5,13.07,2.28725,10.7828
485,93,181,4.6738,36.2867,0,349,0,0.00000000,0.00000000,0,0,0,0,-255,0,0,0,0,17.5,13.07,2.28725,10.7828
486,93,181,4.68395,36.2882,0,351,0,0.00000000,0.00000000,0,0,0,0,-255,0,0,0,0,18.5,13.07,2.41795,10.652
487,93,182,4.69422,36.2977,0,350,0,0.00000000,0.00000000,0,0,0,0,-255,0,0,0,0,18.5,13.07,2.41795,10.652
488,95,182,4.70463,36.2905,0,349,0,0.00000000,0.00000000,0,0,0,0,-255,0,0,0,0,19.3,13.07,2.52251,10.5475
489,94,181,4.71491,36.2898,0,349,0,0.00000000,0.00000000,0,0,0,0,-255,0,0,0,0,19.3,13.07,2.52251,10.5475
490,93,181,4.72502,36.285,0,349,0,0.00000000,0.00000000,0,0,0,0,-255,0,0,0,0,20,13.06,2.612,10.448
491,93,181,4.73541,36.2946,0,351,0,0.00000000,0.00000000,0,0,0,0,-255,0,0,0,0,20,13.06,2.612,10.448
492,94,181,4.74567,36.2934,0,349,0,0.00000000,0.00000000,0,0,0,0,-255,0,0,0,0,21,13.06,2.7426,10.3174
493,95,181,4.75603,36.2963,0,350,0,0.00000000,0.00000000,0,0,0,0,-255,0,0,0,0,21,13.06,2.7426,10.3174
494,94,182,4.76633,36.2923,0,348,0,0.00000000,0.00000000,0,0,0,0,-255,0,0,0,0,20.4,13.06,2.66424,10.3958
495,93,182,4.77464,36.2896,0,349,0,0.00000000,0.00000000,0,0,0,0,-255,0,0,0,0,20.4,13.06,2.66424,10.3958
496,92,182,4.78496,36.289,0,349,0,0.00000000,0.00000000,0,0,0,0,-255,0,0,0,0,20.2,13.06,2.63812,10.4219
497,92,182,4.79546,36.2924,0,350,0,0.00000000,0.00000000,0,0,0,0,-255,0,0,0,0,20.2,13.06,2.63812,10.4219
498,93,182,4.80605,36.2968,0,350,0,0.00000000,0.00000000,0,0,0,0,-255,0,0,0,0,20.2,13.06,2.63812,10.4219
499,93,182,4.81655,36.2975,0,349,0,0.00000000,0.00000000,0,0,0,0,-255,0,0,0,0,20.2,13.06,2.63812,10.4219
500,93,181,4.82704,36.2991,0,350,0,0.00000000,0.00000000,0,0,0,0,-255,0,0,0,0,20.3,13.07,2.65321,10.4168
501,93,182,4.83742,36.3026,0,352,0,0.00000000,0.00000000,0,0,0,0,-255,0,0,0,0,20.3,13.07,2.65321,10.4168
502,94,182,4.84559,36.3055,0,350,0,0.00000000,0.00000000,0,0,0,0,-255,0,0,0,0,20,13.06,2.612,10.448
503,95,182,4.85591,36.3016,0,349,0,0.00000000,0.00000000,0,0,0,0,-255,0,0,0,0,20,13.06,2.612,10.448
504,94,182,4.86612,36.2951,0,347,0,0.00000000,0.00000000,0,0,0,0,-255,0,0,0,0,20.2,13.06,2.63812,10.4219
505,93,182,4.87652,36.292,0,350,0,0.00000000,0.00000000,0,0,0,0,-255,0,0,0,0,20.2,13.06,2.63812,10.4219
506,92,182,4.88671,36.2976,0,351,0,0.00000000,0.00000000,0,0,0,0,-255,0,0,0,0,19.8,13.06,2.58588,10.4741
507,93,182,4.89703,36.3003,0,349,0,0.00000000,0.00000000,0,0,0,0,-255,0,0,0,0,19.8,13.06,2.58588,10.4741
508,94,182,4.90733,36.2968,0,349,0,0.00000000,0.00000000,0,0,0,0,-255,0,0,0,0,19,13.06,2.4814,10.5786
509,92,182,4.91775,36.2948,0,348,0,0.00000000,0.00000000,0,0,0,0,-255,0,0,0,0,19,13.06,2.4814,10.5786
510,92,182,4.92797,36.2877,0,350,0,0.00000000,0.00000000,0,0,0,0,-255,0,0,0,0,18,13.06,2.3508,10.7092
511,91,182,4.9382,36.2941,0,350,0,0.00000000,0.00000000,0,0,0,0,-255,0,0,0,0,18,13.06,2.3508,10.7092
512,91,182,4.94873,36.2961,0,353,0,0.00000000,0.00000000,0,0,0,0,-255,0,0,0,0,17.2,13.06,2.24632,10.8137
513,92,182,4.95902,36.3012,0,350,0,0.00000000,0.00000000,0,0,0,0,-255,0,0,0,0,17.2,13.06,2.24632,10.8137
514,93,182,4.96751,36.2993,0,349,0,0.00000000,0.00000000,0,0,0,0,-255,0,0,0,0,16.3,13.06,2.12878,10.9312
515,92,182,4.97782,36.2962,0,348,0,0.00000000,0.00000000,0,0,0,0,-255,0,0,0,0,16.3,13.06,2.12878,10.9312
516,92,182,4.98827,36.2949,0,350,0,0.00000000,0.00000000,0,0,0,0,-255,0,0,0,0,15.5,13.07,2.02585,11.0442
517,92,182,4.99874,36.2971,0,350,0,0.00000000,0.00000000,0,0,0,0,-255,0,0,0,0,15.5,13.07,2.02585,11.0442
518,92,181,5.00894,36.3043,0,352,0,0.00000000,0.00000000,0,0,0,0,-255,0,0,0,0,15.1,13.07,1.97357,11.0964
519,94,181,5.01917,36.3089,0,350,0,0.00000000,0.00000000,0,0,0,0,-255,0,0,0,0,15.1,13.07,1.97357,11.0964
520,95,181,5.02959,36.3001,0,347,0,0.00000000,0.00000000,0,0,0,0,-255,0,0,0,0,14.8,13.07,1.93436,11.1356
521,94,181,5.03797,36.2908,0,347,0,0.00000000,0.00000000,0,0,0,0,-255,0,0,0,0,14.8,13.07,1.93436,11.1356
522,94,181,5.0484,36.2936,0,349,0,0.00000000,0.00000000,0,0,0,0,-255,0,0,0,0,14.7,13.06,1.91982,11.1402
523,94,181,5.05864,36.2894,0,348,0,0.00000000,0.00000000,0,0,0,0,-255,0,0,0,0,14.7,13.06,1.91982,11.1402
524,93,181,5.06881,36.2863,0,350,0,0.00000000,0.00000000,0,0,0,0,-255,0,0,0,0,15.2,13.07,1.98664,11.0834
525,93,181,5.07909,36.2895,0,350,0,0.00000000,0.00000000,0,0,0,0,-255,0,0,0,0,15.2,13.07,1.98664,11.0834
526,92,181,5.08929,36.2829,0,348,0,0.00000000,0.00000000,0,0,0,0,-255,0,0,0,0,15.4,13.07,2.01278,11.0572
527,90,181,5.09967,36.2814,0,350,0,0.00000000,0.00000000,0,0,0,0,-255,0,0,0,0,15.4,13.07,2.01278,11.0572
528,90,181,5.11011,36.2857,0,351,0,0.00000000,0.00000000,0,0,0,0,-255,0,0,0,0,15.5,13.07,2.02585,11.0442
529,91,181,5.12061,36.3007,0,353,0,0.00000000,0.00000000,0,0,0,0,-255,0,0,0,0,15.5,13.07,2.02585,11.0442
530,93,181,5.13092,36.3024,0,351,0,0.00000000,0.00000000,0,0,0,0,-255,0,0,0,0,15.8,13.07,2.06506,11.0049
531,94,181,5.13917,36.3037,0,348,0,0.00000000,0.00000000,0,0,0,0,-255,0,0,0,0,15.8,13.07,2.06506,11.0049
532,94,181,5.14966,36.3002,0,349,0,0.00000000,0.00000000,0,0,0,0,-255,0,0,0,0,15.8,13.08,2.06664,11.0134
533,95,181,5.16002,36.3054,0,351,0,0.00000000,0.00000000,0,0,0,0,-255,0,0,0,0,15.8,13.08,2.06664,11.0134
534,95,181,5.17065,36.304,0,348,0,0.00000000,0.00000000,0,0,0,0,-255,0,0,0,0,15.4,13.08,2.01432,11.0657
535,95,181,5.18107,36.2996,0,349,0,0.00000000,0.00000000,0,0,0,0,-255,0,0,0,0,15.4,13.08,2.01432,11.0657
536,95,181,5.19136,36.297,0,349,0,0.00000000,0.00000000,0,0,0,0,-255,0,0,0,0,15.7,13.08,2.05356,11.0264
537,94,182,5.20156,36.293,0,349,0,0.00000000,0.00000000,0,0,0,0,-255,0,0,0,0,15.7,13.08,2.05356,11.0264
538,93,181,5.21214,36.3,0,351,0,0.00000000,0.00000000,0,0,0,0,-255,0,0,0,0,15.8,13.08,2.06664,11.0134
539,93,182,5.22255,36.3016,0,349,0,0.00000000,0.00000000,0,0,0,0,-255,0,0,0,0,15.8,13.08,2.06664,11.0134
540,93,182,5.23098,36.3024,0,350,0,0.00000000,0.00000000,0,0,0,0,-255,0,0,0,0,15.7,13.07,2.05199,11.018
541,93,182,5.24161,36.3048,0,350,0,0.00000000,0.00000000,0,0,0,0,-255,0,0,0,0,15.7,13.07,2.05199,11.018
542,93,182,5.25208,36.3037,0,349,0,0.00000000,0.00000000,0,0,0,0,-255,0,0,0,0,15.7,13.07,2.05199,11.018
543,92,182,5.26246,36.3058,0,351,0,0.00000000,0.00000000,0,0,0,0,-255,0,0,0,0,15.7,13.07,2.05199,11.018
544,93,182,5.27268,36.3098,0,354,0,0.00000000,0.00000000,0,0,0,0,-255,0,0,0,0,15.9,13.08,2.07972,11.0003
545,94,182,5.28295,36.3407,0,358,0,0.00000000,0.00000000,0,0,0,0,-255,0,0,0,0,15.9,13.08,2.07972,11.0003
546,94,182,5.29142,36.37,0,359,0,0.00000000,0.00000000,0,0,0,0,-255,0,0,0,0,15.5,13.07,2.02585,11.0442
547,93,182,5.3019,36.4046,0,359,0,0.00000000,0.00000000,0,0,0,0,-255,0,0,0,0,15.5,13.07,2.02585,11.0442
548,94,183,5.31211,36.4312,0,358,0,0.00000000,0.00000000,0,0,0,0,-255,0,0,0,0,15.3,13.07,1.99971,11.0703
549,93,183,5.3227,36.4615,0,360,0,0.00000000,0.00000000,0,0,0,0,-255,0,0,0,0,15.3,13.07,1.99971,11.0703
550,93,183,5.33297,36.4872,0,360,0,0.00000000,0.00000000,0,0,0,0,-255,0,0,0,0,15.3,13.07,1.99971,11.0703
551,93,183,5.34358,36.5072,0,358,0,0.00000000,0.00000000,0,0,0,0,-255,0,0,0,0,15.3,13.07,1.99971,11.0703
552,93,183,5.35386,36.5256,0,361,0,0.00000000,0.00000000,0,0,0,0,-255,0,0,0,0,15.1,13.07,1.97357,11.0964
553,93,183,5.36427,36.5397,0,359,0,0.00000000,0.00000000,0,0,0,0,-255,0,0,0,0,15.1,13.07,1.97357,11.0964
554,93,184,5.37267,36.55,0,359,0,0.00000000,0.00000000,0,0,0,0,-255,0,0,0,0,15.1,13.06,1.97206,11.0879
555,93,184,5.38301,36.5626,0,360,0,0.00000000,0.00000000,0,0,0,0,-255,0,0,0,0,15.1,13.06,1.97206,11.0879
556,92,184,5.39343,36.5728,0,359,0,0.00000000,0.00000000,0,0,0,0,-255,0,0,0,0,15.2,13.07,1.98664,11.0834
557,92,184,5.40378,36.5853,0,360,0,0.00000000,0.00000000,0,0,0,0,-255,0,0,0,0,15.2,13.07,1.98664,11.0834
558,92,184,5.41432,36.5943,0,360,0,0.00000000,0.00000000,0,0,0,0,-255,0,0,0,0,15.3,13.07,1.99971,11.0703
559,91,184,5.42464,36.6024,0,359,0,0.00000000,0.00000000,0,0,0,0,-255,0,0,0,0,15.3,13.07,1.99971,11.0703
560,92,184,5.43527,36.6149,0,361,0,0.00000000,0.00000000,0,0,0,0,-255,0,0,0,0,15.3,13.07,1.99971,11.0703
561,92,184,5.4436,36.6218,0,360,0,0.00000000,0.00000000,0,0,0,0,-255,0,0,0,0,15.3,13.07,1.99971,11.0703
562,92,184,5.45395,36.6268,0,361,0,0.00000000,0.00000000,0,0,0,0,-255,0,0,0,0,15.7,13.07,2.05199,11.018
563,92,184,5.46457,36.6277,0,358,0,0.00000000,0.00000000,0,0,0,0,-255,0,0,0,0,15.7,13.07,2.05199,11.018
564,92,184,5.47499,36.6281,0,358,0,0.00000000,0.00000000,0,0,0,0,-255,0,0,0,0,15.6,13.07,2.03892,11.0311
565,92,184,5.48539,36.6326,0,361,0,0.00000000,0.00000000,0,0,0,0,-255,0,0,0,0,15.6,13.07,2.03892,11.0311
566,92,184,5.49573,36.6397,0,360,0,0.00000000,0.00000000,0,0,0,0,-255,0,0,0,0,15.5,13.07,2.02585,11.0442
567,92,184,5.50611,36.6461,0,361,0,0.00000000,0.00000000,0,0,0,0,-255,0,0,0,0,15.5,13.07,2.02585,11.0442
568,94,184,5.51661,36.6483,0,358,0,0.00000000,0.00000000,0,0,0,0,-255,0,0,0,0,15.8,13.07,2.06506,11.0049
569,92,184,5.52697,36.6455,0,360,0,0.00000000,0.00000000,0,0,0,0,-255,0,0,0,0,15.8,13.07,2.06506,11.0049
570,92,184,5.53552,36.6446,0,358,0,0.00000000,0.00000000,0,0,0,0,-255,0,0,0,0,15.7,13.07,2.05199,11.018
571,91,184,5.54644,36.6498,0,361,0,0.00000000,0.00000000,0,0,0,0,-255,0,0,0,0,15.7,13.07,2.05199,11.018
572,92,184,5.55683,36.6571,0,361,0,0.00000000,0.00000000,0,0,0,0,-255,0,0,0,0,15.2,13.06,1.98512,11.0749
573,93,184,5.56761,36.6687,0,362,0,0.00000000,0.00000000,0,0,0,0,-255,0,0,0,0,15.2,13.06,1.98512,11.0749
574,94,184,5.57798,36.6652,0,358,0,0.00000000,0.00000000,0,0,0,0,-255,0,0,0,0,14.8,13.06,1.93288,11.1271
575,94,184,5.58851,36.6668,0,361,0,0.00000000,0.00000000,0,0,0,0,-255,0,0,0,0,14.5,13.06,1.8937,11.1663
576,94,184,5.5989,36.6623,0,358,0,0.00000000,0.00000000,0,0,0,0,-255,0,0,0,0,14.5,13.06,1.8937,11.1663
577,93,185,5.60729,36.6573,0,358,0,0.00000000,0.00000000,0,0,0,0,-255,0,0,0,0,14.5,13.06,1.8937,11.1663
578,93,185,5.61776,36.6567,0,358,0,0.00000000,0.00000000,0,0,0,0,-255,0,0,0,0,14.2,13.06,1.85452,11.2055
579,92,184,5.62819,36.6587,0,361,0,0.00000000,0.00000000,0,0,0,0,-255,0,0,0,0,14.2,13.06,1.85452,11.2055
580,92,184,5.63853,36.6644,0,360,0,0.00000000,0.00000000,0,0,0,0,-255,0,0,0,0,14.3,13.06,1.86758,11.1924
581,92,184,5.64918,36.6667,0,360,0,0.00000000,0.00000000,0,0,0,0,-255,0,0,0,0,14.3,13.06,1.86758,11.1924
582,93,185,5.66002,36.6669,0,360,0,0.00000000,0.00000000,0,0,0,0,-255,0,0,0,0,14.9,13.07,1.94743,11.1226
583,92,185,5.66849,36.669,0,361,0,0.00000000,0.00000000,0,0,0,0,-255,0,0,0,0,14.9,13.07,1.94743,11.1226
584,93,185,5.67905,36.6718,0,360,0,0.00000000,0.00000000,0,0,0,0,-255,0,0,0,0,15.3,13.07,1.99971,11.0703
585,93,185,5.68961,36.6718,0,359,0,0.00000000,0.00000000,0,0,0,0,-255,0,0,0,0,15.3,13.07,1.99971,11.0703
586,93,185,5.70001,36.6714,0,359,0,0.00000000,0.00000000,0,0,0,0,-255,0,0,0,0,15.8,13.07,2.06506,11.0049
587,94,185,5.71038,36.6724,0,360,0,0.00000000,0.00000000,0,0,0,0,-255,0,0,0,0,16.1,13.07,2.10427,10.9657
588,94,185,5.72091,36.6723,0,361,0,0.00000000,0.00000000,0,0,0,0,-255,0,0,0,0,16.1,13.07,2.10427,10.9657
589,95,185,5.73155,36.6726,0,359,0,0.00000000,0.00000000,0,0,0,0,-255,0,0,0,0,16.1,13.07,2.10427,10.9657
590,94,185,5.74004,36.6719,0,361,0,0.00000000,0.00000000,0,0,0,0,-255,0,0,0,0,15.9,13.06,2.07654,10.9835
591,94,185,5.75063,36.6762,0,360,0,0.00000000,0.00000000,0,0,0,0,-255,0,0,0,0,15.9,13.06,2.07654,10.9835
592,95,185,5.76087,36.6739,0,357,0,0.00000000,0.00000000,0,0,0,0,-255,0,0,0,0,15.7,13.06,2.05042,11.0096
593,95,185,5.77141,36.6686,0,360,0,0.00000000,0.00000000,0,0,0,0,-255,0,0,0,0,15.8,13.07,2.06506,11.0049
594,95,185,5.78182,36.6694,0,360,0,0.00000000,0.00000000,0,0,0,0,-255,0,0,0,0,15.8,13.07,2.06506,11.0049
595,95,185,5.79225,36.6749,0,361,0,0.00000000,0.00000000,0,0,0,0,-255,0,0,0,0,15.8,13.07,2.06506,11.0049
596,94,185,5.80256,36.6801,0,361,0,0.00000000,0.00000000,0,0,0,0,-255,0,0,0,0,15.8,13.07,2.06506,11.0049
597,94,185,5.81306,36.6804,0,359,0,0.00000000,0.00000000,0,0,0,0,-255,0,0,0,0,16,13.07,2.0912,10.9788
598,93,185,5.8235,36.6738,0,359,0,0.00000000,0.00000000,0,0,0,0,-255,0,0,0,0,16,13.07,2.0912,10.9788
599,93,185,5.83378,36.6706,0,359,0,0.00000000,0.00000000,0,0,0,0,-255,0,0,0,0,16.1,13.07,2.10427,10.9657
600,93,185,5.84422,36.6687,0,359,0,0.00000000,0.00000000,0,0,0,0,-255,0,0,0,0,16.1,13.07,2.10427,10.9657
601,93,185,5.85443,36.6661,0,359,0,0.00000000,0.00000000,0,0,0,0,-255,0,0,0,0,16.4,13.07,2.14348,10.9265
602,93,185,5.86483,36.6721,0,362,0,0.00000000,0.00000000,0,0,0,0,-255,0,0,0,0,16.4,13.07,2.14348,10.9265
603,93,185,5.87326,36.6766,0,360,0,0.00000000,0.00000000,0,0,0,0,-255,0,0,0,0,16.4,13.07,2.14348,10.9265
604,93,185,5.8838,36.6773,0,360,0,0.00000000,0.00000000,0,0,0,0,-255,0,0,0,0,16.3,13.08,2.13204,10.948
605,95,185,5.89462,36.6748,0,359,0,0.00000000,0.00000000,0,0,0,0,-255,0,0,0,0,16,13.07,2.0912,10.9788
606,95,185,5.90491,36.6725,0,359,0,0.00000000,0.00000000,0,0,0,0,-255,0,0,0,0,16,13.07,2.0912,10.9788
607,95,185,5.91529,36.6707,0,360,0,0.00000000,0.00000000,0,0,0,0,-255,0,0,0,0,16,13.07,2.0912,10.9788
608,95,185,5.92593,36.6691,0,359,0,0.00000000,0.00000000,0,0,0,0,-255,0,0,0,0,15.4,13.07,2.01278,11.0572
609,95,185,5.93641,36.6668,0,360,0,0.00000000,0.00000000,0,0,0,0,-255,0,0,0,0,15.4,13.07,2.01278,11.0572
610,95,185,5.94698,36.67,0,361,0,0.00000000,0.00000000,0,0,0,0,-255,0,0,0,0,15.4,13.07,2.01278,11.0572
611,95,185,5.95729,36.6732,0,361,0,0.00000000,0.00000000,0,0,0,0,-255,0,0,0,0,15.2,13.07,1.98664,11.0834
612,95,185,5.96769,36.6756,0,360,0,0.00000000,0.00000000,0,0,0,0,-255,0,0,0,0,15.2,13.07,1.98664,11.0834
613,95,185,5.97808,36.6726,0,359,0,0.00000000,0.00000000,0,0,0,0,-255,0,0,0,0,14.9,13.06,1.94594,11.1141
614,97,185,5.98658,36.6751,0,360,0,0.00000000,0.00000000,0,0,0,0,-255,0,0,0,0,14.9,13.06,1.94594,11.1141
615,97,185,5.99703,36.6747,0,357,0,0.00000000,0.00000000,0,0,0,0,-255,0,0,0,0,14.9,13.06,1.94594,11.1141
616,96,185,6.00736,36.6665,0,359,0,0.00000000,0.00000000,0,0,0,0,-255,0,0,0,0,14.6,13.07,1.90822,11.1618
617,94,185,6.01762,36.6557,0,357,0,0.00000000,0.00000000,0,0,0,0,-255,0,0,0,0,14.6,13.07,1.90822,11.1618
618,92,185,6.02797,36.6521,0,359,0,0.00000000,0.00000000,0,0,0,0,-255,0,0,0,0,14.6,13.07,1.90822,11.1618
619,91,184,6.0383,36.6549,0,361,0,0.00000000,0.00000000,0,0,0,0,-255,0,0,0,0,14.6,13.07,1.90822,11.1618
620,91,185,6.04885,36.6683,0,362,0,0.00000000,0.00000000,0,0,0,0,-255,0,0,0,0,14.3,13.07,1.86901,11.201
621,93,184,6.05954,36.6734,0,360,0,0.00000000,0.00000000,0,0,0,0,-255,0,0,0,0,13.9,13.07,1.81673,11.2533
622,93,184,6.06994,36.6745,0,360,0,0.00000000,0.00000000,0,0,0,0,-255,0,0,0,0,13.9,13.07,1.81673,11.2533
623,94,183,6.07845,36.6744,0,358,0,0.00000000,0.00000000,0,0,0,0,-255,0,0,0,0,13.6,13.07,1.77752,11.2925
624,94,183,6.08896,36.6714,0,362,0,0.00000000,0.00000000,0,0,0,0,-255,0,0,0,0,13.6,13.07,1.77752,11.2925
625,96,183,6.09956,36.6763,0,359,0,0.00000000,0.00000000,0,0,0,0,-255,0,0,0,0,13.5,13.08,1.7658,11.3142
626,97,183,6.11,36.6733,0,360,0,0.00000000,0.00000000,0,0,0,0,-255,0,0,0,0,13.5,13.08,1.7658,11.3142
627,97,183,6.12057,36.6731,0,359,0,0.00000000,0.00000000,0,0,0,0,-255,0,0,0,0,13.4,13.08,1.75272,11.3273
628,96,184,6.13097,36.6684,0,359,0,0.00000000,0.00000000,0,0,0,0,-255,0,0,0,0,13.4,13.08,1.75272,11.3273
629,95,184,6.14143,36.667,0,358,0,0.00000000,0.00000000,0,0,0,0,-255,0,0,0,0,13.4,13.07,1.75138,11.3186
630,94,183,6.14972,36.6625,0,358,0,0.00000000,0.00000000,0,0,0,0,-255,0,0,0,0,13.4,13.07,1.75138,11.3186
631,93,183,6.16012,36.6825,0,368,0,0.00000000,0.00000000,0,0,0,0,-255,0,0,0,0,13.4,13.07,1.75138,11.3186
632,93,184,6.17078,36.7255,0,368,0,0.00000000,0.00000000,0,0,0,0,-255,0,0,0,0,13.7,13.08,1.79196,11.288
633,93,184,6.18141,36.7496,0,365,0,0.00000000,0.00000000,0,0,0,0,-255,0,0,0,0,14.2,13.08,1.85736,11.2226
634,85,184,6.19203,36.7696,0,369,0,0.00000000,0.00000000,0,0,0,0,-255,0,0,0,0,14.2,13.08,1.85736,11.2226
635,83,184,6.20275,36.8092,0,371,0,0.00000000,0.00000000,0,0,0,0,-255,0,0,0,0,14.1,13.08,1.84428,11.2357
636,83,184,6.21099,36.8362,0,372,0,0.00000000,0.00000000,0,0,0,0,-255,0,0,0,0,14.1,13.08,1.84428,11.2357
637,89,184,6.22155,36.8706,0,372,0,0.00000000,0.00000000,0,0,0,0,-255,0,0,0,0,14,13.08,1.8312,11.2488
638,92,185,6.23196,36.8944,0,370,0,0.00000000,0.00000000,0,0,0,0,-255,0,0,0,0,14,13.08,1.8312,11.2488
639,91,185,6.24244,36.9088,0,370,0,0.00000000,0.00000000,0,0,0,0,-255,0,0,0,0,13.9,13.08,1.81812,11.2619
640,92,185,6.25297,36.9249,0,370,0,0.00000000,0.00000000,0,0,0,0,-255,0,0,0,0,13.9,13.08,1.81812,11.2619
641,92,185,6.2633,36.9376,0,369,0,0.00000000,0.00000000,0,0,0,0,-255,0,0,0,0,13.9,13.08,1.81812,11.2619
642,92,185,6.27388,36.9406,0,368,0,0.00000000,0.00000000,0,0,0,0,-255,0,0,0,0,13.6,13.08,1.77888,11.3011
643,91,185,6.28429,36.9469,0,368,0,0.00000000,0.00000000,0,0,0,0,-255,0,0,0,0,13.6,13.08,1.77888,11.3011
644,90,185,6.29495,36.9522,0,369,0,0.00000000,0.00000000,0,0,0,0,-255,0,0,0,0,13.4,13.08,1.75272,11.3273
645,90,185,6.30341,36.9598,0,370,0,0.00000000,0.00000000,0,0,0,0,-255,0,0,0,0,13.4,13.08,1.75272,11.3273
646,91,185,6.31414,36.9653,0,369,0,0.00000000,0.00000000,0,0,0,0,-255,0,0,0,0,13.5,13.08,1.7658,11.3142
647,90,185,6.32482,36.9775,0,371,0,0.00000000,0.00000000,0,0,0,0,-255,0,0,0,0,13.5,13.08,1.7658,11.3142
648,91,185,6.33547,36.9877,0,370,0,0.00000000,0.00000000,0,0,0,0,-255,0,0,0,0,13.6,13.08,1.77888,11.3011
649,91,186,6.34621,36.9963,0,370,0,0.00000000,0.00000000,0,0,0,0,-255,0,0,0,0,13.6,13.08,1.77888,11.3011
650,92,186,6.35481,36.9979,0,369,0,0.00000000,0.00000000,0,0,0,0,-255,0,0,0,0,13.6,13.08,1.77888,11.3011
651,92,186,6.36537,36.9997,0,370,0,0.00000000,0.00000000,0,0,0,0,-255,0,0,0,0,13.6,13.08,1.77888,11.3011
652,92,185,6.37583,37.008,0,369,0,0.00000000,0.00000000,0,0,0,0,-255,0,0,0,0,13.3,13.08,1.73964,11.3404
653,92,185,6.38637,37.0077,0,370,0,0.00000000,0.00000000,0,0,0,0,-255,0,0,0,0,13.1,13.07,1.71217,11.3578
654,92,185,6.39683,37.0083,0,369,0,0.00000000,0.00000000,0,0,0,0,-255,0,0,0,0,13.1,13.07,1.71217,11.3578
655,92,186,6.40742,37.0092,0,369,0,0.00000000,0.00000000,0,0,0,0,-255,0,0,0,0,13.1,13.07,1.71217,11.3578
656,92,186,6.41831,37.0118,0,369,0,0.00000000,0.00000000,0,0,0,0,-255,0,0,0,0,12.9,13.07,1.68603,11.384
657,92,186,6.42683,37.0115,0,369,0,0.00000000,0.00000000,0,0,0,0,-255,0,0,0,0,12.6,13.07,1.64682,11.4232
658,92,186,6.43719,37.0129,0,369,0,0.00000000,0.00000000,0,0,0,0,-255,0,0,0,0,12.6,13.07,1.64682,11.4232
659,92,186,6.44794,37.0106,0,369,0,0.00000000,0.00000000,0,0,0,0,-255,0,0,0,0,12.4,13.06,1.61944,11.4406
660,92,186,6.45852,37.0142,0,370,0,0.00000000,0.00000000,0,0,0,0,-255,0,0,0,0,12.4,13.06,1.61944,11.4406
661,91,186,6.46906,37.0187,0,370,0,0.00000000,0.00000000,0,0,0,0,-255,0,0,0,0,12.4,13.07,1.62068,11.4493
662,91,186,6.47964,37.0213,0,369,0,0.00000000,0.00000000,0,0,0,0,-255,0,0,0,0,12.4,13.07,1.62068,11.4493
663,92,186,6.4902,37.0199,0,369,0,0.00000000,0.00000000,0,0,0,0,-255,0,0,0,0,12.2,13.07,1.59454,11.4755
664,93,185,6.49886,37.0201,0,368,0,0.00000000,0.00000000,0,0,0,0,-255,0,0,0,0,12.2,13.07,1.59454,11.4755
665,92,186,6.50937,37.018,0,370,0,0.00000000,0.00000000,0,0,0,0,-255,0,0,0,0,12.1,13.07,1.58147,11.4885
666,92,185,6.51972,37.0233,0,369,0,0.00000000,0.00000000,0,0,0,0,-255,0,0,0,0,12.1,13.07,1.58147,11.4885
667,92,186,6.53037,37.0216,0,369,0,0.00000000,0.00000000,0,0,0,0,-255,0,0,0,0,12.1,13.07,1.58147,11.4885
668,91,186,6.54117,37.0173,0,369,0,0.00000000,0.00000000,0,0,0,0,-255,0,0,0,0,11.9,13.07,1.55533,11.5147
669,91,186,6.55188,37.0163,0,369,0,0.00000000,0.00000000,0,0,0,0,-255,0,0,0,0,11.9,13.07,1.55533,11.5147
670,91,186,6.56049,37.0151,0,368,0,0.00000000,0.00000000,0,0,0,0,-255,0,0,0,0,11.9,13.07,1.55533,11.5147
671,91,185,6.57126,37.0119,0,372,0,0.00000000,0.00000000,0,0,0,0,-255,0,0,0,0,11.9,13.07,1.55533,11.5147
672,89,185,6.58185,37.0069,0,366,0,0.00000000,0.00000000,0,0,0,0,-255,0,0,0,0,11.9,13.07,1.55533,11.5147
673,89,185,6.59255,36.8761,0,180,0,0.00000000,0.00000000,0,0,0,0,-255,0,0,0,0,11.9,13.07,1.55533,11.5147
674,86,185,6.60299,35.9036,0,90,0,0.00000000,0.00000000,0,0,0,0,-255,0,0,0,0,11.9,13.07,1.55533,11.5147
675,86,185,6.61299,34.5777,0,0,0,0.00000000,0.00000000,0,0,0,0,-255,0,0,0,0,11.9,13.07,1.55533,11.5147
676,86,185,6.62087,33.4033,0,0,0,0.00000000,0.00000000,0,0,0,0,-255,0,0,0,0,11.9,13.07,1.55533,11.5147
677,0,185,6.63019,32.0552,0,0,0,0.00000000,0.00000000,0,0,0,0,-255,0,0,0,0,11.9,13.07,1.55533,11.5147
678,0,185,6.63911,30.8035,0,0,0,0.00000000,0.00000000,0,0,0,0,-255,0,0,0,0,12.2,13.07,1.59454,11.4755
679,0,185,6.64769,29.6369,0,0,0,0.00000000,0.00000000,0,0,0,0,-255,0,0,0,0,12.2,13.07,1.59454,11.4755
680,0,184,6.65597,28.5402,0,0,0,0.00000000,0.00000000,0,0,0,0,-255,0,0,0,0,12.2,13.07,1.59454,11.4755
681,0,182,6.66403,27.5019,0,0,0,0.00000000,0.00000000,0,0,0,0,-255,0,0,0,0,13.7,13.07,1.79059,11.2794
682,0,182,6.67181,26.5255,0,0,0,0.00000000,0.00000000,0,0,0,0,-255,0,0,0,0,13.7,13.07,1.79059,11.2794
683,0,181,6.67786,25.7816,0,0,0,0.00000000,0.00000000,0,0,0,0,-255,0,0,0,0,14.9,13.07,1.94743,11.1226
684,0,180,6.68507,24.914,0,0,0,0.00000000,0.00000000,0,0,0,0,-255,0,0,0,0,14.9,13.07,1.94743,11.1226
685,0,179,6.69201,24.0974,0,0,0,0.00000000,0.00000000,0,0,0,0,-255,0,0,0,0,17.4,13.08,2.27592,10.8041
686,0,178,6.69914,23.2746,0,0,0,0.00000000,0.00000000,0,0,0,0,-255,0,0,0,0,17.4,13.08,2.27592,10.8041
687,0,177,6.70449,22.6687,0,0,0,0.00000000,0.00000000,0,0,0,0,-255,0,0,0,0,21.5,13.07,2.81005,10.2599
688,0,177,6.7109,21.9552,0,0,0,0.00000000,0.00000000,0,0,0,0,-255,0,0,0,0,21.5,13.07,2.81005,10.2599
689,0,176,6.71708,21.2782,0,0,0,0.00000000,0.00000000,0,0,0,0,-255,0,0,0,0,27.6,13.07,3.60732,9.46268
690,0,175,6.7231,20.6313,0,0,0,0.00000000,0.00000000,0,0,0,0,-255,0,0,0,0,27.6,13.07,3.60732,9.46268
691,0,174,6.7291,19.9948,0,0,0,0.00000000,0.00000000,0,0,0,0,-255,0,0,0,0,35.3,13.08,4.61724,8.46276
692,0,173,6.73472,19.4092,0,0,0,0.00000000,0.00000000,0,0,0,0,-255,0,0,0,0,35.3,13.08,4.61724,8.46276
693,0,172,6.73909,18.9588,0,0,0,0.00000000,0.00000000,0,0,0,0,-255,0,0,0,0,35.3,13.08,4.61724,8.46276
694,0,171,6.74438,18.4197,0,0,0,0.00000000,0.00000000,0,0,0,0,-255,0,0,0,0,43.5,13.09,5.69415,7.39585
695,0,170,6.74945,17.91,0,0,0,0.00000000,0.00000000,0,0,0,0,-255,0,0,0,0,51.1,13.1,6.6941,6.4059
696,0,169,6.75451,17.4029,0,0,0,0.00000000,0.00000000,0,0,0,0,-255,0,0,0,0,51.1,13.1,6.6941,6.4059
697,0,169,6.75935,16.9257,0,0,0,0.00000000,0.00000000,0,0,0,0,-255,0,0,0,0,57.5,13.11,7.53825,5.57175
699,0,169,6.76538,16.3342,0,0,0,0.00000000,0.00000000,0,0,0,0,-255,0,0,0,0,57.5,13.11,7.53825,5.57175
