secs,cad,hr,km,kph,nm,watts,alt,lon,lat,headwind,slope,temp,interval,lrbalance,lte,rte,lps,rps,smo2,thb,o2hb,hhb
0,0,0,0,0,0,0,0,0.00000000,0.00000000,0,0,-255,0,-255,0,0,0,0,62.1,12.76,7.92396,4.83604
1,0,0,0,0,0,0,0,0.00000000,0.00000000,0,0,-255,0,-255,0,0,0,0,62.7,12.75,7.99425,4.75575
2,0,0,0.000250947,3.00686,0,106,0,0.00000000,0.00000000,0,0,-255,0,-255,0,0,0,0,62.7,12.75,7.99425,4.75575
3,63,0,0.00164068,6.64208,0,180,0,0.00000000,0.00000000,0,0,-255,0,-255,0,0,0,0,62.6,12.71,7.95646,4.75354
4,78,0,0.00389204,9.17902,0,140,0,0.00000000,0.00000000,0,0,-255,0,-255,0,0,0,0,62.6,12.71,7.95646,4.75354
5,69,0,0.00677887,10.8867,0,122,0,0.00000000,0.00000000,0,0,-255,0,-255,0,0,0,0,62.1,12.71,7.89291,4.81709
6,94,0,0.0100557,11.8852,0,74,0,0.00000000,0.00000000,0,0,-255,0,-255,0,0,0,0,62.1,12.71,7.89291,4.81709
7,89,0,0.013486,12.5237,0,72,0,0.00000000,0.00000000,0,0,-255,0,-255,0,0,0,0,61.6,12.7,7.8232,4.8768
8,94,0,0.0171276,13.0534,0,69,0,0.00000000,0.00000000,0,0,-255,0,-255,0,0,0,0,61.6,12.7,7.8232,4.8768
9,94,0,0.020882,13.6194,0,63,0,0.00000000,0.00000000,0,0,-255,0,-255,0,0,0,0,60.8,12.7,7.7216,4.9784
10,95,0,0.0241051,13.9299,0,62,0,0.00000000,0.00000000,0,0,-255,0,-255,0,0,0,0,60.8,12.7,7.7216,4.9784
11,97,0,0.028122,14.2929,0,69,0,0.00000000,0.00000000,0,0,-255,0,-255,0,0,0,0,60.1,12.7,7.6327,5.0673
12,98,0,0.0323169,14.6722,0,61,0,0.00000000,0.00000000,0,0,-255,0,-255,0,0,0,0,60.1,12.7,7.6327,5.0673
13,98,0,0.0366097,14.9154,0,59,0,0.00000000,0.00000000,0,0,-255,0,-255,0,0,0,0,59.9,12.72,7.61928,5.10072
14,98,0,0.0409754,15.0934,0,50,0,0.00000000,0.00000000,0,0,-255,0,-255,0,0,0,0,59.9,12.72,7.61928,5.10072
15,98,0,0.0445718,15.255,0,59,0,0.00000000,0.00000000,0,0,-255,0,-255,0,0,0,0,60.1,12.72,7.64472,5.07528
16,98,0,0.0488997,15.2012,0,30,0,0.00000000,0.00000000,0,0,-255,0,-255,0,0,0,0,60.1,12.72,7.64472,5.07528
17,93,0,0.0531858,15.1429,0,52,0,0.00000000,0.00000000,0,0,-255,0,-255,0,0,0,0,60,12.72,7.632,5.088
18,93,0,0.0574557,15.3356,0,66,0,0.00000000,0.00000000,0,0,-255,0,-255,0,0,0,0,60,12.72,7.632,5.088
19,94,0,0.0619955,15.5462,0,51,0,0.00000000,0.00000000,0,0,-255,0,-255,0,0,0,0,59.8,12.72,7.60656,5.11344
20,94,0,0.0664516,15.6817,0,55,0,0.00000000,0.00000000,0,0,-255,0,-255,0,0,0,0,59.8,12.72,7.60656,5.11344
21,97,0,0.0708756,15.8341,0,56,0,0.00000000,0.00000000,0,0,-255,0,-255,0,0,0,0,59.6,12.71,7.57516,5.13484
22,93,0,0.0745199,15.8551,0,41,0,0.00000000,0.00000000,0,0,-255,0,-255,0,0,0,0,59.6,12.71,7.57516,5.13484
23,93,0,0.0790605,15.9195,0,39,0,0.00000000,0.00000000,0,0,-255,0,-255,0,0,0,0,59.4,12.71,7.54974,5.16026
24,93,0,0.0837215,15.8958,0,40,0,0.00000000,0.00000000,0,0,-255,0,-255,0,0,0,0,59.4,12.71,7.54974,5.16026
25,93,0,0.0881991,15.8922,0,42,0,0.00000000,0.00000000,0,0,-255,0,-255,0,0,0,0,59.2,12.7,7.5184,5.1816
26,93,0,0.0926901,15.9782,0,48,0,0.00000000,0.00000000,0,0,-255,0,-255,0,0,0,0,59.2,12.7,7.5184,5.1816
27,93,0,0.0972373,15.9864,0,44,0,0.00000000,0.00000000,0,0,-255,0,-255,0,0,0,0,58.8,12.7,7.4676,5.2324
28,93,0,0.101791,16.0014,0,45,0,0.00000000,0.00000000,0,0,-255,0,-255,0,0,0,0,58.8,12.7,7.4676,5.2324
29,94,0,0.106289,16.1144,0,60,0,0.00000000,0.00000000,0,0,-255,0,-255,0,0,0,0,58.5,12.69,7.42365,5.26635
30,93,0,0.110927,16.1727,0,33,0,0.00000000,0.00000000,0,0,-255,0,-255,0,0,0,0,58.5,12.69,7.42365,5.26635
31,93,0,0.115522,16.0866,0,55,0,0.00000000,0.00000000,0,0,-255,0,-255,0,0,0,0,58.4,12.68,7.40512,5.27488
32,93,0,0.119215,16.1732,0,46,0,0.00000000,0.00000000,0,0,-255,0,-255,0,0,0,0,58.4,12.68,7.40512,5.27488
33,93,0,0.123774,16.1832,0,44,0,0.00000000,0.00000000,0,0,-255,0,-255,0,0,0,0,58,12.68,7.3544,5.3256
34,94,0,0.128335,16.2047,0,44,0,0.00000000,0.00000000,0,0,-255,0,-255,0,0,0,0,58,12.68,7.3544,5.3256
35,95,0,0.132916,16.3349,0,70,0,0.00000000,0.00000000,0,0,-255,0,-255,0,0,0,0,57,12.66,7.2162,5.4438
36,96,0,0.13765,16.4165,0,46,0,0.00000000,0.00000000,0,0,-255,0,-255,0,0,0,0,57,12.66,7.2162,5.4438
37,96,0,0.142358,16.2854,0,0,0,0.00000000,0.00000000,0,0,-255,0,-255,0,0,0,0,56.1,12.66,7.10226,5.55774
38,97,0,0.14701,16.0026,0,32,0,0.00000000,0.00000000,0,0,-255,0,-255,0,0,0,0,56.1,12.66,7.10226,5.55774
39,96,0,0.151502,15.9039,0,52,0,0.00000000,0.00000000,0,0,-255,0,-255,0,0,0,0,55.5,12.62,7.0041,5.6159
40,96,0,0.156002,16.0036,0,52,0,0.00000000,0.00000000,0,0,-255,0,-255,0,0,0,0,55.5,12.62,7.0041,5.6159
41,96,0,0.159707,16.074,0,50,0,0.00000000,0.00000000,0,0,-255,0,-255,0,0,0,0,55,12.62,6.941,5.679
42,96,0,0.16424,16.1871,0,59,0,0.00000000,0.00000000,0,0,-255,0,-255,0,0,0,0,55,12.62,6.941,5.679
43,96,0,0.168954,16.3349,0,54,0,0.00000000,0.00000000,0,0,-255,0,-255,0,0,0,0,54.3,12.62,6.85266,5.76734
44,95,0,0.173863,16.4098,0,55,0,0.00000000,0.00000000,0,0,-255,0,-255,0,0,0,0,54.3,12.62,6.85266,5.76734
45,95,0,0.178705,16.5135,0,55,0,0.00000000,0.00000000,0,0,-255,0,-255,0,0,0,0,54.1,12.63,6.83283,5.79717
46,96,0,0.182708,16.59,0,55,0,0.00000000,0.00000000,0,0,-255,0,-255,0,0,0,0,54.1,12.63,6.83283,5.79717
47,94,0,0.187639,16.5357,0,42,0,0.00000000,0.00000000,0,0,-255,0,-255,0,0,0,0,54.6,12.63,6.89598,5.73402
48,93,0,0.192316,16.499,0,42,0,0.00000000,0.00000000,0,0,-255,0,-255,0,0,0,0,54.6,12.63,6.89598,5.73402
49,92,0,0.196974,16.4406,0,34,0,0.00000000,0.00000000,0,0,-255,0,-255,0,0,0,0,55.4,12.67,7.01918,5.65082
50,93,0,0.201584,16.3327,0,34,0,0.00000000,0.00000000,0,0,-255,0,-255,0,0,0,0,55.4,12.67,7.01918,5.65082
51,91,0,0.206151,16.3688,0,65,0,0.00000000,0.00000000,0,0,-255,0,-255,0,0,0,0,56.5,12.67,7.15855,5.51145
52,91,0,0.209896,16.5144,0,53,0,0.00000000,0.00000000,0,0,-255,0,-255,0,0,0,0,56.5,12.67,7.15855,5.51145
53,91,0,0.214642,16.5812,0,49,0,0.00000000,0.00000000,0,0,-255,0,-255,0,0,0,0,57.4,12.67,7.27258,5.39742
54,91,0,0.219318,16.6262,0,55,0,0.00000000,0.00000000,0,0,-255,0,-255,0,0,0,0,57.4,12.67,7.27258,5.39742
55,93,0,0.223978,16.702,0,54,0,0.00000000,0.00000000,0,0,-255,0,-255,0,0,0,0,58.5,12.67,7.41195,5.25805
56,91,0,0.228773,16.7748,0,60,0,0.00000000,0.00000000,0,0,-255,0,-255,0,0,0,0,58.5,12.67,7.41195,5.25805
57,93,0,0.233527,16.9359,0,70,0,0.00000000,0.00000000,0,0,-255,0,-255,0,0,0,0,59.4,12.67,7.52598,5.14402
58,93,0,0.238505,17.0679,0,55,0,0.00000000,0.00000000,0,0,-255,0,-255,0,0,0,0,59.4,12.67,7.52598,5.14402
59,93,0,0.243415,17.0842,0,36,0,0.00000000,0.00000000,0,0,-255,0,-255,0,0,0,0,59.6,12.66,7.54536,5.11464
60,95,0,0.248247,17.1775,0,23,0,0.00000000,0.00000000,0,0,-255,0,-255,0,0,0,0,59.6,12.66,7.54536,5.11464
61,96,0,0.253067,16.9871,0,44,0,0.00000000,0.00000000,0,0,-255,0,-255,0,0,0,0,58.7,12.62,7.40794,5.21206
62,94,0,0.256943,17.0764,0,63,0,0.00000000,0.00000000,0,0,-255,0,-255,0,0,0,0,58.7,12.62,7.40794,5.21206
63,96,0,0.261821,17.1436,0,59,0,0.00000000,0.00000000,0,0,-255,0,-255,0,0,0,0,57.8,12.62,7.29436,5.32564
64,96,0,0.266883,17.2226,0,56,0,0.00000000,0.00000000,0,0,-255,0,-255,0,0,0,0,57.8,12.62,7.29436,5.32564
65,96,0,0.271739,17.2831,0,58,0,0.00000000,0.00000000,0,0,-255,0,-255,0,0,0,0,57.4,12.61,7.23814,5.37186
66,96,0,0.27664,17.3565,0,55,0,0.00000000,0.00000000,0,0,-255,0,-255,0,0,0,0,57.4,12.61,7.23814,5.37186
67,97,0,0.281528,17.2852,0,52,0,0.00000000,0.00000000,0,0,-255,0,-255,0,0,0,0,56.7,12.62,7.15554,5.46446
68,96,0,0.286366,17.2703,0,48,0,0.00000000,0.00000000,0,0,-255,0,-255,0,0,0,0,56.7,12.62,7.15554,5.46446
69,96,0,0.290482,17.2636,0,53,0,0.00000000,0.00000000,0,0,-255,0,-255,0,0,0,0,55.6,12.61,7.01116,5.59884
70,95,0,0.295524,17.2336,0,38,0,0.00000000,0.00000000,0,0,-255,0,-255,0,0,0,0,55.6,12.61,7.01116,5.59884
71,95,0,0.300517,17.1763,0,56,0,0.00000000,0.00000000,0,0,-255,0,-255,0,0,0,0,55.9,12.65,7.07135,5.57865
72,95,0,0.305418,17.198,0,46,0,0.00000000,0.00000000,0,0,-255,0,-255,0,0,0,0,55.9,12.65,7.07135,5.57865
73,95,0,0.310413,17.158,0,46,0,0.00000000,0.00000000,0,0,-255,0,-255,0,0,0,0,57,12.65,7.2105,5.4395
74,94,0,0.315452,17.1231,0,47,0,0.00000000,0.00000000,0,0,-255,0,-255,0,0,0,0,57,12.65,7.2105,5.4395
75,94,0,0.319488,17.1021,0,47,0,0.00000000,0.00000000,0,0,-255,0,-255,0,0,0,0,56.8,12.65,7.1852,5.4648
76,94,0,0.324463,17.068,0,42,0,0.00000000,0.00000000,0,0,-255,0,-255,0,0,0,0,56.8,12.65,7.1852,5.4648
77,94,0,0.32948,17.0317,0,47,0,0.00000000,0.00000000,0,0,-255,0,-255,0,0,0,0,56.5,12.64,7.1416,5.4984
78,92,0,0.334461,16.9963,0,43,0,0.00000000,0.00000000,0,0,-255,0,-255,0,0,0,0,56.5,12.64,7.1416,5.4984
79,94,0,0.339253,16.9551,0,51,0,0.00000000,0.00000000,0,0,-255,0,-255,0,0,0,0,56.7,12.63,7.16121,5.46879
80,94,0,0.344,17.0218,0,51,0,0.00000000,0.00000000,0,0,-255,0,-255,0,0,0,0,56.7,12.63,7.16121,5.46879
81,94,0,0.348849,17.0872,0,67,0,0.00000000,0.00000000,0,0,-255,0,-255,0,0,0,0,56.8,12.63,7.17384,5.45616
82,95,0,0.352705,17.09,0,40,0,0.00000000,0.00000000,0,0,-255,0,-255,0,0,0,0,56.8,12.63,7.17384,5.45616
83,95,0,0.357534,17.1108,0,53,0,0.00000000,0.00000000,0,0,-255,0,-255,0,0,0,0,56.2,12.63,7.09806,5.53194
84,96,0,0.362361,17.1222,0,44,0,0.00000000,0.00000000,0,0,-255,0,-255,0,0,0,0,56.2,12.63,7.09806,5.53194
85,95,0,0.3672,17.1361,0,50,0,0.00000000,0.00000000,0,0,-255,0,-255,0,0,0,0,55.9,12.63,7.06017,5.56983
86,95,0,0.372044,17.1342,0,56,0,0.00000000,0.00000000,0,0,-255,0,-255,0,0,0,0,55.9,12.63,7.06017,5.56983
87,95,0,0.377077,17.1242,0,42,0,0.00000000,0.00000000,0,0,-255,0,-255,0,0,0,0,55.9,12.63,7.06017,5.56983
88,93,0,0.381935,17.0572,0,47,0,0.00000000,0.00000000,0,0,-255,0,-255,0,0,0,0,55.9,12.63,7.06017,5.56983
89,94,0,0.386761,17.1381,0,61,0,0.00000000,0.00000000,0,0,-255,0,-255,0,0,0,0,56.2,12.64,7.10368,5.53632
90,95,0,0.391653,17.2162,0,52,0,0.00000000,0.00000000,0,0,-255,0,-255,0,0,0,0,56.2,12.64,7.10368,5.53632
91,94,0,0.395539,17.267,0,58,0,0.00000000,0.00000000,0,0,-255,0,-255,0,0,0,0,56.3,12.64,7.11632,5.52368
92,96,0,0.400402,17.2692,0,57,0,0.00000000,0.00000000,0,0,-255,0,-255,0,0,0,0,56.3,12.64,7.11632,5.52368
93,96,0,0.405285,17.3684,0,72,0,0.00000000,0.00000000,0,0,-255,0,-255,0,0,0,0,56.3,12.64,7.11632,5.52368
94,94,0,0.410214,17.3452,0,42,0,0.00000000,0.00000000,0,0,-255,0,-255,0,0,0,0,56.3,12.64,7.11632,5.52368
95,93,0,0.41509,17.261,0,42,0,0.00000000,0.00000000,0,0,-255,0,-255,0,0,0,0,56.4,12.64,7.12896,5.51104
96,93,0,0.419963,17.224,0,51,0,0.00000000,0.00000000,0,0,-255,0,-255,0,0,0,0,56.4,12.64,7.12896,5.51104
97,93,0,0.424902,17.1874,0,46,0,0.00000000,0.00000000,0,0,-255,0,-255,0,0,0,0,56.6,12.64,7.15424,5.48576
98,94,0,0.429902,17.2236,0,62,0,0.00000000,0.00000000,0,0,-255,0,-255,0,0,0,0,56.6,12.64,7.15424,5.48576
99,94,0,0.434836,17.3631,0,69,0,0.00000000,0.00000000,0,0,-255,0,-255,0,0,0,0,56.5,12.64,7.1416,5.4984
100,95,0,0.43877,17.461,0,58,0,0.00000000,0.00000000,0,0,-255,0,-255,0,0,0,0,56.5,12.64,7.1416,5.4984
101,95,0,0.443666,17.4555,0,41,0,0.00000000,0.00000000,0,0,-255,0,-255,0,0,0,0,56.1,12.64,7.09104,5.54896
102,95,0,0.448568,17.3549,0,48,0,0.00000000,0.00000000,0,0,-255,0,-255,0,0,0,0,56.1,12.64,7.09104,5.54896
103,95,0,0.453482,17.3523,0,54,0,0.00000000,0.00000000,0,0,-255,0,-255,0,0,0,0,56,12.64,7.0784,5.5616
104,96,0,0.458384,17.3981,0,59,0,0.00000000,0.00000000,0,0,-255,0,-255,0,0,0,0,56,12.64,7.0784,5.5616
105,96,0,0.463299,17.4833,0,63,0,0.00000000,0.00000000,0,0,-255,0,-255,0,0,0,0,55.8,12.65,7.0587,5.5913
106,96,0,0.468303,17.4154,0,40,0,0.00000000,0.00000000,0,0,-255,0,-255,0,0,0,0,55.8,12.65,7.0587,5.5913
107,95,0,0.473328,17.2874,0,45,0,0.00000000,0.00000000,0,0,-255,0,-255,0,0,0,0,55.5,12.64,7.0152,5.6248
108,95,0,0.47818,17.2342,0,45,0,0.00000000,0.00000000,0,0,-255,0,-255,0,0,0,0,55.5,12.64,7.0152,5.6248
109,94,0,0.483063,17.2173,0,57,0,0.00000000,0.00000000,0,0,-255,0,-255,0,0,0,0,54.8,12.64,6.92672,5.71328
110,94,0,0.487167,17.2448,0,49,0,0.00000000,0.00000000,0,0,-255,0,-255,0,0,0,0,54.8,12.64,6.92672,5.71328
111,94,0,0.492156,17.1992,0,46,0,0.00000000,0.00000000,0,0,-255,0,-255,0,0,0,0,54.4,12.64,6.87616,5.76384
112,92,0,0.497062,17.1486,0,42,0,0.00000000,0.00000000,0,0,-255,0,-255,0,0,0,0,54.4,12.64,6.87616,5.76384
113,92,0,0.501874,17.1044,0,43,0,0.00000000,0.00000000,0,0,-255,0,-255,0,0,0,0,54.1,12.64,6.83824,5.80176
114,92,0,0.506701,17.0594,0,44,0,0.00000000,0.00000000,0,0,-255,0,-255,0,0,0,0,54.1,12.64,6.83824,5.80176
115,91,0,0.511522,16.9881,0,35,0,0.00000000,0.00000000,0,0,-255,0,-255,0,0,0,0,54,12.63,6.8202,5.8098
116,92,0,0.516379,16.9433,0,45,0,0.00000000,0.00000000,0,0,-255,0,-255,0,0,0,0,53.7,12.64,6.78768,5.85232
117,92,0,0.520245,17.0439,0,57,0,0.00000000,0.00000000,0,0,-255,0,-255,0,0,0,0,53.7,12.64,6.78768,5.85232
118,93,0,0.52505,17.1095,0,56,0,0.00000000,0.00000000,0,0,-255,0,-255,0,0,0,0,53.7,12.64,6.78768,5.85232
119,93,0,0.529975,17.1251,0,56,0,0.00000000,0.00000000,0,0,-255,0,-255,0,0,0,0,54.1,12.64,6.83824,5.80176
120,93,0,0.534883,17.1505,0,51,0,0.00000000,0.00000000,0,0,-255,0,-255,0,0,0,0,54.1,12.64,6.83824,5.80176
121,93,0,0.539866,17.1749,0,52,0,0.00000000,0.00000000,0,0,-255,0,-255,0,0,0,0,54.5,12.64,6.8888,5.7512
122,93,0,0.543947,17.1608,0,46,0,0.00000000,0.00000000,0,0,-255,0,-255,0,0,0,0,54.5,12.64,6.8888,5.7512
123,93,0,0.548917,17.065,0,41,0,0.00000000,0.00000000,0,0,-255,0,-255,0,0,0,0,54.5,12.64,6.8888,5.7512
124,92,0,0.553787,16.9628,0,43,0,0.00000000,0.00000000,0,0,-255,0,-255,0,0,0,0,54.5,12.64,6.8888,5.7512
125,90,0,0.558547,16.9018,0,40,0,0.00000000,0.00000000,0,0,-255,0,-255,0,0,0,0,54.2,12.64,6.85088,5.78912
126,90,0,0.563298,16.7849,0,34,0,0.00000000,0.00000000,0,0,-255,0,-255,0,0,0,0,54.2,12.64,6.85088,5.78912
127,89,0,0.568017,16.7984,0,54,0,0.00000000,0.00000000,0,0,-255,0,-255,0,0,0,0,54.5,12.64,6.8888,5.7512
128,90,0,0.572758,16.8486,0,53,0,0.00000000,0.00000000,0,0,-255,0,-255,0,0,0,0,54.5,12.64,6.8888,5.7512
129,92,0,0.57755,16.949,0,43,0,0.00000000,0.00000000,0,0,-255,0,-255,0,0,0,0,55,12.64,6.952,5.688
130,92,0,0.5823,16.8976,0,43,0,0.00000000,0.00000000,0,0,-255,0,-255,0,0,0,0,55,12.64,6.952,5.688
131,93,0,0.586313,16.8716,0,48,0,0.00000000,0.00000000,0,0,-255,0,-255,0,0,0,0,55.2,12.64,6.97728,5.66272
132,94,0,0.591145,16.9276,0,66,0,0.00000000,0.00000000,0,0,-255,0,-255,0,0,0,0,55.2,12.64,6.97728,5.66272
133,94,0,0.596104,17.0567,0,52,0,0.00000000,0.00000000,0,0,-255,0,-255,0,0,0,0,55.2,12.64,6.97728,5.66272
134,94,0,0.600965,17.0765,0,50,0,0.00000000,0.00000000,0,0,-255,0,-255,0,0,0,0,55.2,12.64,6.97728,5.66272
135,94,0,0.605786,17.0568,0,47,0,0.00000000,0.00000000,0,0,-255,0,-255,0,0,0,0,55.3,12.64,6.98992,5.65008
136,95,0,0.610578,17.0218,0,44,0,0.00000000,0.00000000,0,0,-255,0,-255,0,0,0,0,55.3,12.64,6.98992,5.65008
137,94,0,0.615381,17.0454,0,53,0,0.00000000,0.00000000,0,0,-255,0,-255,0,0,0,0,55,12.64,6.952,5.688
138,95,0,0.620276,17.1704,0,68,0,0.00000000,0.00000000,0,0,-255,0,-255,0,0,0,0,54.1,12.64,6.83824,5.80176
139,96,0,0.62421,17.1662,0,47,0,0.00000000,0.00000000,0,0,-255,0,-255,0,0,0,0,54.1,12.64,6.83824,5.80176
140,95,0,0.629237,17.0262,0,39,0,0.00000000,0.00000000,0,0,-255,0,-255,0,0,0,0,54.1,12.64,6.83824,5.80176
141,93,0,0.634188,17.0074,0,48,0,0.00000000,0.00000000,0,0,-255,0,-255,0,0,0,0,53.2,12.64,6.72448,5.91552
142,93,0,0.639099,17.0065,0,43,0,0.00000000,0.00000000,0,0,-255,0,-255,0,0,0,0,53.2,12.64,6.72448,5.91552
143,93,0,0.643835,16.9576,0,45,0,0.00000000,0.00000000,0,0,-255,0,-255,0,0,0,0,53,12.63,6.6939,5.9361
144,93,0,0.648665,17.0119,0,55,0,0.00000000,0.00000000,0,0,-255,0,-255,0,0,0,0,53.1,12.63,6.70653,5.92347
145,93,0,0.652529,17.0715,0,58,0,0.00000000,0.00000000,0,0,-255,0,-255,0,0,0,0,53.1,12.63,6.70653,5.92347
146,93,0,0.657382,17.1383,0,56,0,0.00000000,0.00000000,0,0,-255,0,-255,0,0,0,0,53.1,12.63,6.70653,5.92347
147,94,0,0.662378,17.1793,0,41,0,0.00000000,0.00000000,0,0,-255,0,-255,0,0,0,0,53.2,12.64,6.72448,5.91552
148,92,0,0.667371,17.0928,0,41,0,0.00000000,0.00000000,0,0,-255,0,-255,0,0,0,0,53.2,12.64,6.72448,5.91552
149,94,0,0.672251,17.0796,0,46,0,0.00000000,0.00000000,0,0,-255,0,-255,0,0,0,0,53.3,12.64,6.73712,5.90288
150,93,0,0.677166,17.0735,0,55,0,0.00000000,0.00000000,0,0,-255,0,-255,0,0,0,0,53.6,12.64,6.77504,5.86496
151,94,0,0.681133,17.1221,0,57,0,0.00000000,0.00000000,0,0,-255,0,-255,0,0,0,0,53.6,12.64,6.77504,5.86496
152,94,0,0.686108,17.1589,0,47,0,0.00000000,0.00000000,0,0,-255,0,-255,0,0,0,0,53.6,12.64,6.77504,5.86496
153,94,0,0.690912,17.1176,0,52,0,0.00000000,0.00000000,0,0,-255,0,-255,0,0,0,0,54,12.64,6.8256,5.8144
154,94,0,0.695776,17.1533,0,55,0,0.00000000,0.00000000,0,0,-255,0,-255,0,0,0,0,54,12.64,6.8256,5.8144
155,94,0,0.700782,17.1575,0,49,0,0.00000000,0.00000000,0,0,-255,0,-255,0,0,0,0,54.4,12.64,6.87616,5.76384
156,93,0,0.70566,17.1487,0,49,0,0.00000000,0.00000000,0,0,-255,0,-255,0,0,0,0,54.4,12.64,6.87616,5.76384
157,95,0,0.71048,17.2995,0,72,0,0.00000000,0.00000000,0,0,-255,0,-255,0,0,0,0,54.5,12.63,6.88335,5.74665
158,95,0,0.714459,17.4418,0,69,0,0.00000000,0.00000000,0,0,-255,0,-255,0,0,0,0,54.5,12.63,6.88335,5.74665
159,96,0,0.719321,17.3531,0,34,0,0.00000000,0.00000000,0,0,-255,0,-255,0,0,0,0,54.7,12.63,6.90861,5.72139
160,95,0,0.724334,17.236,0,50,0,0.00000000,0.00000000,0,0,-255,0,-255,0,0,0,0,54.7,12.63,6.90861,5.72139
161,94,0,0.729321,17.2013,0,46,0,0.00000000,0.00000000,0,0,-255,0,-255,0,0,0,0,54.9,12.63,6.93387,5.69613
162,94,0,0.734138,17.1691,0,49,0,0.00000000,0.00000000,0,0,-255,0,-255,0,0,0,0,54.9,12.63,6.93387,5.69613
163,93,0,0.739008,17.1232,0,46,0,0.00000000,0.00000000,0,0,-255,0,-255,0,0,0,0,54.4,12.62,6.86528,5.75472
164,93,0,0.743821,17.0891,0,46,0,0.00000000,0.00000000,0,0,-255,0,-255,0,0,0,0,54.4,12.62,6.86528,5.75472
165,92,0,0.748709,17.0629,0,45,0,0.00000000,0.00000000,0,0,-255,0,-255,0,0,0,0,53.9,12.63,6.80757,5.82243
166,91,0,0.753489,17.0252,0,47,0,0.00000000,0.00000000,0,0,-255,0,-255,0,0,0,0,53.9,12.63,6.80757,5.82243
167,91,0,0.757467,17.019,0,49,0,0.00000000,0.00000000,0,0,-255,0,-255,0,0,0,0,53.6,12.63,6.76968,5.86032
168,92,0,0.762371,17.0894,0,58,0,0.00000000,0.00000000,0,0,-255,0,-255,0,0,0,0,53.6,12.63,6.76968,5.86032
169,92,0,0.767238,17.1541,0,51,0,0.00000000,0.00000000,0,0,-255,0,-255,0,0,0,0,53.5,12.64,6.7624,5.8776
170,92,0,0.772032,17.1611,0,50,0,0.00000000,0.00000000,0,0,-255,0,-255,0,0,0,0,53.5,12.64,6.7624,5.8776
171,92,0,0.776936,17.2273,0,60,0,0.00000000,0.00000000,0,0,-255,0,-255,0,0,0,0,53.6,12.64,6.77504,5.86496
172,92,0,0.781807,17.2963,0,41,0,0.00000000,0.00000000,0,0,-255,0,-255,0,0,0,0,53.6,12.64,6.77504,5.86496
173,91,0,0.786675,17.2389,0,45,0,0.00000000,0.00000000,0,0,-255,0,-255,0,0,0,0,53.8,12.65,6.8057,5.8443
174,91,0,0.791522,17.2164,0,49,0,0.00000000,0.00000000,0,0,-255,0,-255,0,0,0,0,53.8,12.65,6.8057,5.8443
175,91,0,0.796347,17.2415,0,50,0,0.00000000,0.00000000,0,0,-255,0,-255,0,0,0,0,53.9,12.65,6.81835,5.83165
176,91,0,0.801228,17.2303,0,49,0,0.00000000,0.00000000,0,0,-255,0,-255,0,0,0,0,54,12.65,6.831,5.819
177,92,0,0.805126,17.2391,0,52,0,0.00000000,0.00000000,0,0,-255,0,-255,0,0,0,0,54,12.65,6.831,5.819
178,92,0,0.809972,17.3041,0,56,0,0.00000000,0.00000000,0,0,-255,0,-255,0,0,0,0,54,12.65,6.831,5.819
179,91,0,0.815016,17.258,0,43,0,0.00000000,0.00000000,0,0,-255,0,-255,0,0,0,0,53.9,12.65,6.81835,5.83165
180,91,0,0.81995,17.187,0,43,0,0.00000000,0.00000000,0,0,-255,0,-255,0,0,0,0,53.9,12.65,6.81835,5.83165
181,92,0,0.824832,17.2612,0,69,0,0.00000000,0.00000000,0,0,-255,0,-255,0,0,0,0,53.9,12.65,6.81835,5.83165
182,94,0,0.829752,17.4372,0,72,0,0.00000000,0.00000000,0,0,-255,0,-255,0,0,0,0,53.9,12.65,6.81835,5.83165
183,94,0,0.834785,17.5067,0,54,0,0.00000000,0.00000000,0,0,-255,0,-255,0,0,0,0,53.8,12.65,6.8057,5.8443
184,95,0,0.838934,17.5386,0,58,0,0.00000000,0.00000000,0,0,-255,0,-255,0,0,0,0,53.8,12.65,6.8057,5.8443
185,96,0,0.843974,17.6357,0,74,0,0.00000000,0.00000000,0,0,-255,0,-255,0,0,0,0,53.7,12.64,6.78768,5.85232
186,97,0,0.849099,17.8114,0,72,0,0.00000000,0.00000000,0,0,-255,0,-255,0,0,0,0,53.7,12.64,6.78768,5.85232
187,97,0,0.854102,17.7342,0,45,0,0.00000000,0.00000000,0,0,-255,0,-255,0,0,0,0,53.6,12.64,6.77504,5.86496
188,95,0,0.859093,17.654,0,45,0,0.00000000,0.00000000,0,0,-255,0,-255,0,0,0,0,53.6,12.64,6.77504,5.86496
189,94,0,0.864045,17.4887,0,30,0,0.00000000,0.00000000,0,0,-255,0,-255,0,0,0,0,53.4,12.64,6.74976,5.89024
190,94,0,0.869026,17.2834,0,30,0,0.00000000,0.00000000,0,0,-255,0,-255,0,0,0,0,53.4,12.64,6.74976,5.89024
191,94,0,0.873877,17.1697,0,38,0,0.00000000,0.00000000,0,0,-255,0,-255,0,0,0,0,52.9,12.64,6.68656,5.95344
192,93,0,0.878754,17.1155,0,44,0,0.00000000,0.00000000,0,0,-255,0,-255,0,0,0,0,52.6,12.64,6.64864,5.99136
193,92,0,0.883592,17.107,0,49,0,0.00000000,0.00000000,0,0,-255,0,-255,0,0,0,0,52.6,12.64,6.64864,5.99136
194,92,0,0.888475,17.1127,0,51,0,0.00000000,0.00000000,0,0,-255,0,-255,0,0,0,0,52.3,12.64,6.61072,6.02928
195,93,0,0.893278,17.1756,0,66,0,0.00000000,0.00000000,0,0,-255,0,-255,0,0,0,0,52.3,12.64,6.61072,6.02928
196,93,0,0.89724,17.295,0,66,0,0.00000000,0.00000000,0,0,-255,0,-255,0,0,0,0,52.3,12.64,6.61072,6.02928
197,95,0,0.902289,17.3595,0,48,0,0.00000000,0.00000000,0,0,-255,0,-255,0,0,0,0,51.7,12.64,6.53488,6.10512
198,94,0,0.907248,17.3025,0,44,0,0.00000000,0.00000000,0,0,-255,0,-255,0,0,0,0,51.7,12.64,6.53488,6.10512
199,94,0,0.912122,17.326,0,63,0,0.00000000,0.00000000,0,0,-255,0,-255,0,0,0,0,51.5,12.64,6.5096,6.1304
200,93,0,0.917057,17.3373,0,38,0,0.00000000,0.00000000,0,0,-255,0,-255,0,0,0,0,51.5,12.64,6.5096,6.1304
201,94,0,0.921937,17.2775,0,51,0,0.00000000,0.00000000,0,0,-255,0,-255,0,0,0,0,51.6,12.64,6.52224,6.11776
202,92,0,0.926806,17.2759,0,51,0,0.00000000,0.00000000,0,0,-255,0,-255,0,0,0,0,51.7,12.65,6.54005,6.10995
203,91,0,0.931623,17.2363,0,45,0,0.00000000,0.00000000,0,0,-255,0,-255,0,0,0,0,51.7,12.65,6.54005,6.10995
204,92,0,0.936503,17.217,0,51,0,0.00000000,0.00000000,0,0,-255,0,-255,0,0,0,0,51.8,12.64,6.54752,6.09248
205,91,0,0.9414,17.2277,0,52,0,0.00000000,0.00000000,0,0,-255,0,-255,0,0,0,0,51.8,12.64,6.54752,6.09248
206,91,0,0.946198,17.2247,0,51,0,0.00000000,0.00000000,0,0,-255,0,-255,0,0,0,0,51.9,12.64,6.56016,6.07984
207,92,0,0.951077,17.2723,0,61,0,0.00000000,0.00000000,0,0,-255,0,-255,0,0,0,0,51.9,12.64,6.56016,6.07984
209,93,0,0.956061,17.3732,0,67,0,0.00000000,0.00000000,0,0,-255,0,-255,0,0,0,0,52,12.64,6.5728,6.0672
210,94,0,0.961021,17.4884,0,62,0,0.00000000,0.00000000,0,0,-255,0,-255,0,0,0,0,52,12.64,6.5728,6.0672
211,93,0,0.96515,17.5906,0,68,0,0.00000000,0.00000000,0,0,-255,0,-255,0,0,0,0,52,12.63,6.5676,6.0624
212,95,0,0.970409,17.7213,0,57,0,0.00000000,0.00000000,0,0,-255,0,-255,0,0,0,0,52,12.63,6.5676,6.0624
213,95,0,0.975612,17.6839,0,43,0,0.00000000,0.00000000,0,0,-255,0,-255,0,0,0,0,51.9,12.64,6.56016,6.07984
214,94,0,0.98056,17.6037,0,53,0,0.00000000,0.00000000,0,0,-255,0,-255,0,0,0,0,51.9,12.64,6.56016,6.07984
215,95,0,0.984767,17.589,0,50,0,0.00000000,0.00000000,0,0,-255,0,-255,0,0,0,0,51.7,12.64,6.53488,6.10512
216,93,0,0.989809,17.5024,0,49,0,0.00000000,0.00000000,0,0,-255,0,-255,0,0,0,0,51.7,12.64,6.53488,6.10512
217,92,0,0.99502,17.4695,0,56,0,0.00000000,0.00000000,0,0,-255,0,-255,0,0,0,0,52.1,12.64,6.58544,6.05456
218,93,0,1.00011,17.5087,0,59,0,0.00000000,0.00000000,0,0,-255,0,-255,0,0,0,0,52.1,12.64,6.58544,6.05456
219,93,0,1.00423,17.585,0,63,0,0.00000000,0.00000000,0,0,-255,0,-255,0,0,0,0,52.6,12.64,6.64864,5.99136
220,94,0,1.00922,17.623,0,49,0,0.00000000,0.00000000,0,0,-255,0,-255,0,0,0,0,52.6,12.64,6.64864,5.99136
221,94,0,1.01424,17.572,0,47,0,0.00000000,0.00000000,0,0,-255,0,-255,0,0,0,0,52.9,12.65,6.69185,5.95815
222,94,0,1.0192,17.4871,0,40,0,0.00000000,0.00000000,0,0,-255,0,-255,0,0,0,0,52.9,12.65,6.69185,5.95815
223,93,0,1.02419,17.3566,0,40,0,0.00000000,0.00000000,0,0,-255,0,-255,0,0,0,0,53.5,12.64,6.7624,5.8776
224,92,0,1.02921,17.2355,0,35,0,0.00000000,0.00000000,0,0,-255,0,-255,0,0,0,0,53.5,12.64,6.7624,5.8776
225,93,0,1.03332,17.1455,0,43,0,0.00000000,0.00000000,0,0,-255,0,-255,0,0,0,0,53.7,12.64,6.78768,5.85232
226,91,0,1.03835,17.0935,0,51,0,0.00000000,0.00000000,0,0,-255,0,-255,0,0,0,0,53.7,12.64,6.78768,5.85232
227,91,0,1.04317,17.0188,0,55,0,0.00000000,0.00000000,0,0,-255,0,-255,0,0,0,0,53.5,12.65,6.76775,5.88225
228,92,0,1.04812,17.0758,0,55,0,0.00000000,0.00000000,0,0,-255,0,-255,0,0,0,0,53.5,12.65,6.76775,5.88225
229,92,0,1.05307,16.9847,0,28,0,0.00000000,0.00000000,0,0,-255,0,-255,0,0,0,0,53.5,12.65,6.76775,5.88225
230,92,0,1.05702,16.9116,0,46,0,0.00000000,0.00000000,0,0,-255,0,-255,0,0,0,0,53.1,12.65,6.71715,5.93285
231,92,0,1.06194,16.9002,0,45,0,0.00000000,0.00000000,0,0,-255,0,-255,0,0,0,0,52.9,12.64,6.68656,5.95344
232,92,0,1.06669,16.8606,0,43,0,0.00000000,0.00000000,0,0,-255,0,-255,0,0,0,0,52.9,12.64,6.68656,5.95344
233,92,0,1.0714,16.837,0,51,0,0.00000000,0.00000000,0,0,-255,0,-255,0,0,0,0,52.5,12.64,6.636,6.004
234,93,0,1.0764,16.8953,0,54,0,0.00000000,0.00000000,0,0,-255,0,-255,0,0,0,0,52.5,12.64,6.636,6.004
235,93,0,1.08131,16.9511,0,54,0,0.00000000,0.00000000,0,0,-255,0,-255,0,0,0,0,52.5,12.64,6.636,6.004
236,93,0,1.08528,16.9658,0,44,0,0.00000000,0.00000000,0,0,-255,0,-255,0,0,0,0,52.6,12.64,6.64864,5.99136
237,93,0,1.09021,16.926,0,45,0,0.00000000,0.00000000,0,0,-255,0,-255,0,0,0,0,53.1,12.63,6.70653,5.92347
238,92,0,1.09517,16.8113,0,41,0,0.00000000,0.00000000,0,0,-255,0,-255,0,0,0,0,53.1,12.63,6.70653,5.92347
239,92,0,1.10009,16.8462,0,56,0,0.00000000,0.00000000,0,0,-255,0,-255,0,0,0,0,53.4,12.63,6.74442,5.88558
240,92,0,1.10418,16.9665,0,54,0,0.00000000,0.00000000,0,0,-255,0,-255,0,0,0,0,53.4,12.63,6.74442,5.88558
241,92,0,1.10913,16.976,0,40,0,0.00000000,0.00000000,0,0,-255,0,-255,0,0,0,0,53.6,12.63,6.76968,5.86032
242,91,0,1.11405,16.9199,0,52,0,0.00000000,0.00000000,0,0,-255,0,-255,0,0,0,0,53.6,12.63,6.76968,5.86032
243,92,0,1.11897,17.029,0,63,0,0.00000000,0.00000000,0,0,-255,0,-255,0,0,0,0,53.5,12.63,6.75705,5.87295
244,93,0,1.12391,17.1435,0,61,0,0.00000000,0.00000000,0,0,-255,0,-255,0,0,0,0,53.5,12.63,6.75705,5.87295
245,94,0,1.12778,17.1931,0,54,0,0.00000000,0.00000000,0,0,-255,0,-255,0,0,0,0,53.4,12.64,6.74976,5.89024
246,94,0,1.13264,17.2493,0,57,0,0.00000000,0.00000000,0,0,-255,0,-255,0,0,0,0,53.4,12.64,6.74976,5.89024
247,92,0,1.13757,17.1423,0,43,0,0.00000000,0.00000000,0,0,-255,0,-255,0,0,0,0,53,12.64,6.6992,5.9408
248,92,0,1.14247,17.0811,0,44,0,0.00000000,0.00000000,0,0,-255,0,-255,0,0,0,0,53,12.64,6.6992,5.9408
249,92,0,1.14727,17.0207,0,39,0,0.00000000,0.00000000,0,0,-255,0,-255,0,0,0,0,53,12.64,6.6992,5.9408
250,93,0,1.15235,17.0389,0,63,0,0.00000000,0.00000000,0,0,-255,0,-255,0,0,0,0,52.5,12.64,6.636,6.004
251,93,0,1.15642,17.0659,0,27,0,0.00000000,0.00000000,0,0,-255,0,-255,0,0,0,0,52,12.64,6.5728,6.0672
252,94,0,1.16142,16.8687,0,48,0,0.00000000,0.00000000,0,0,-255,0,-255,0,0,0,0,52,12.64,6.5728,6.0672
253,95,0,1.16635,16.9474,0,63,0,0.00000000,0.00000000,0,0,-255,0,-255,0,0,0,0,52.2,12.64,6.59808,6.04192
254,97,0,1.17119,16.9584,0,44,0,0.00000000,0.00000000,0,0,-255,0,-255,0,0,0,0,52.2,12.64,6.59808,6.04192
255,94,0,1.17618,16.7858,0,39,0,0.00000000,0.00000000,0,0,-255,0,-255,0,0,0,0,52.2,12.64,6.59808,6.04192
256,95,0,1.18099,16.722,0,41,0,0.00000000,0.00000000,0,0,-255,0,-255,0,0,0,0,52.2,12.64,6.59808,6.04192
257,93,0,1.1849,16.7088,0,46,0,0.00000000,0.00000000,0,0,-255,0,-255,0,0,0,0,51.9,12.64,6.56016,6.07984
258,91,0,1.18982,16.702,0,54,0,0.00000000,0.00000000,0,0,-255,0,-255,0,0,0,0,51.9,12.64,6.56016,6.07984
259,92,0,1.19457,16.7645,0,53,0,0.00000000,0.00000000,0,0,-255,0,-255,0,0,0,0,51.8,12.64,6.54752,6.09248
260,93,0,1.19953,16.8468,0,59,0,0.00000000,0.00000000,0,0,-255,0,-255,0,0,0,0,51.8,12.64,6.54752,6.09248
261,93,0,1.20342,16.9323,0,59,0,0.00000000,0.00000000,0,0,-255,0,-255,0,0,0,0,51.7,12.64,6.53488,6.10512
262,95,0,1.20856,17.0384,0,60,0,0.00000000,0.00000000,0,0,-255,0,-255,0,0,0,0,51.7,12.64,6.53488,6.10512
263,95,0,1.21362,17.1343,0,51,0,0.00000000,0.00000000,0,0,-255,0,-255,0,0,0,0,51.7,12.64,6.53488,6.10512
264,96,0,1.21869,17.146,0,51,0,0.00000000,0.00000000,0,0,-255,0,-255,0,0,0,0,51.5,12.63,6.50445,6.12555
265,95,0,1.22261,17.1015,0,43,0,0.00000000,0.00000000,0,0,-255,0,-255,0,0,0,0,51.5,12.63,6.50445,6.12555
266,94,0,1.22741,17.0737,0,48,0,0.00000000,0.00000000,0,0,-255,0,-255,0,0,0,0,51.6,12.63,6.51708,6.11292
267,94,0,1.23222,17.0192,0,39,0,0.00000000,0.00000000,0,0,-255,0,-255,0,0,0,0,51.5,12.63,6.50445,6.12555
268,94,0,1.23701,16.9449,0,43,0,0.00000000,0.00000000,0,0,-255,0,-255,0,0,0,0,51.5,12.63,6.50445,6.12555
269,94,0,1.24182,16.8783,0,43,0,0.00000000,0.00000000,0,0,-255,0,-255,0,0,0,0,51.3,12.62,6.47406,6.14594
270,93,0,1.24659,16.8201,0,40,0,0.00000000,0.00000000,0,0,-255,0,-255,0,0,0,0,51.3,12.62,6.47406,6.14594
271,92,0,1.2515,16.7395,0,42,0,0.00000000,0.00000000,0,0,-255,0,-255,0,0,0,0,51,12.63,6.4413,6.1887
272,92,0,1.2563,16.7411,0,47,0,0.00000000,0.00000000,0,0,-255,0,-255,0,0,0,0,51,12.63,6.4413,6.1887
273,93,0,1.26021,16.7588,0,52,0,0.00000000,0.00000000,0,0,-255,0,-255,0,0,0,0,50.7,12.63,6.40341,6.22659
274,93,0,1.26522,16.7916,0,56,0,0.00000000,0.00000000,0,0,-255,0,-255,0,0,0,0,50.7,12.63,6.40341,6.22659
275,93,0,1.27019,16.8731,0,54,0,0.00000000,0.00000000,0,0,-255,0,-255,0,0,0,0,50,12.63,6.315,6.315
276,94,0,1.27521,16.9513,0,58,0,0.00000000,0.00000000,0,0,-255,0,-255,0,0,0,0,50,12.63,6.315,6.315
277,94,0,1.2791,17.0598,0,66,0,0.00000000,0.00000000,0,0,-255,0,-255,0,0,0,0,49.5,12.63,6.25185,6.37815
278,96,0,1.28416,17.0844,0,42,0,0.00000000,0.00000000,0,0,-255,0,-255,0,0,0,0,49.5,12.63,6.25185,6.37815
279,95,0,1.28907,17.0111,0,41,0,0.00000000,0.00000000,0,0,-255,0,-255,0,0,0,0,49.5,12.63,6.25185,6.37815
280,95,0,1.29393,16.9429,0,42,0,0.00000000,0.00000000,0,0,-255,0,-255,0,0,0,0,49.3,12.63,6.22659,6.40341
281,95,0,1.29879,16.8601,0,44,0,0.00000000,0.00000000,0,0,-255,0,-255,0,0,0,0,48.7,12.63,6.15081,6.47919
282,94,0,1.30352,16.7794,0,34,0,0.00000000,0.00000000,0,0,-255,0,-255,0,0,0,0,48.7,12.63,6.15081,6.47919
283,93,0,1.3083,16.6983,0,39,0,0.00000000,0.00000000,0,0,-255,0,-255,0,0,0,0,47.8,12.63,6.03714,6.59286
284,96,0,1.31312,16.6217,0,39,0,0.00000000,0.00000000,0,0,-255,0,-255,0,0,0,0,47.8,12.63,6.03714,6.59286
285,92,0,1.31688,16.5947,0,48,0,0.00000000,0.00000000,0,0,-255,0,-255,0,0,0,0,47.6,12.64,6.01664,6.62336
286,94,0,1.32171,16.6122,0,48,0,0.00000000,0.00000000,0,0,-255,0,-255,0,0,0,0,47.6,12.64,6.01664,6.62336
287,95,0,1.32654,16.605,0,44,0,0.00000000,0.00000000,0,0,-255,0,-255,0,0,0,0,47.8,12.64,6.04192,6.59808
288,92,0,1.33142,16.5873,0,45,0,0.00000000,0.00000000,0,0,-255,0,-255,0,0,0,0,47.8,12.64,6.04192,6.59808
289,92,0,1.33645,16.5754,0,45,0,0.00000000,0.00000000,0,0,-255,0,-255,0,0,0,0,48.2,12.65,6.0973,6.5527
290,93,0,1.34028,16.5932,0,42,0,0.00000000,0.00000000,0,0,-255,0,-255,0,0,0,0,48.2,12.65,6.0973,6.5527
291,93,0,1.34495,16.5952,0,50,0,0.00000000,0.00000000,0,0,-255,0,-255,0,0,0,0,49.1,12.64,6.20624,6.43376
292,94,0,1.34982,16.8249,0,78,0,0.00000000,0.00000000,0,0,-255,0,-255,0,0,0,0,49.1,12.64,6.20624,6.43376
293,96,0,1.35487,16.8508,0,46,0,0.00000000,0.00000000,0,0,-255,0,-255,0,0,0,0,50.2,12.65,6.3503,6.2997
294,94,0,1.35984,16.8397,0,38,0,0.00000000,0.00000000,0,0,-255,0,-255,0,0,0,0,50.2,12.65,6.3503,6.2997
295,97,0,1.36377,16.8088,0,45,0,0.00000000,0.00000000,0,0,-255,0,-255,0,0,0,0,50.9,12.64,6.43376,6.20624
296,95,0,1.36873,16.7771,0,43,0,0.00000000,0.00000000,0,0,-255,0,-255,0,0,0,0,50.9,12.64,6.43376,6.20624
297,95,0,1.37369,16.9087,0,61,0,0.00000000,0.00000000,0,0,-255,0,-255,0,0,0,0,51.2,12.64,6.47168,6.16832
298,97,0,1.37861,16.9902,0,43,0,0.00000000,0.00000000,0,0,-255,0,-255,0,0,0,0,51.2,12.64,6.47168,6.16832
299,95,0,1.38334,16.9206,0,38,0,0.00000000,0.00000000,0,0,-255,0,-255,0,0,0,0,51.5,12.64,6.5096,6.1304
300,95,0,1.38827,16.8202,0,38,0,0.00000000,0.00000000,0,0,-255,0,-255,0,0,0,0,51.5,12.64,6.5096,6.1304
301,97,0,1.39218,16.6313,0,0,0,0.00000000,0.00000000,0,0,-255,0,-255,0,0,0,0,51.4,12.64,6.49696,6.14304
302,0,0,1.39691,16.1722,0,0,0,0.00000000,0.00000000,0,0,-255,0,-255,0,0,0,0,51.4,12.64,6.49696,6.14304
303,0,0,1.40138,15.7428,0,0,0,0.00000000,0.00000000,0,0,-255,0,-255,0,0,0,0,52.3,12.61,6.59503,6.01497
304,0,0,1.40579,15.3225,0,0,0,0.00000000,0.00000000,0,0,-255,0,-255,0,0,0,0,52.3,12.61,6.59503,6.01497
305,0,0,1.41012,14.912,0,0,0,0.00000000,0.00000000,0,0,-255,0,-255,0,0,0,0,53.6,12.58,6.74288,5.83712
306,0,0,1.41427,14.5219,0,0,0,0.00000000,0.00000000,0,0,-255,0,-255,0,0,0,0,53.6,12.58,6.74288,5.83712
307,0,0,1.41836,14.1385,0,0,0,0.00000000,0.00000000,0,0,-255,0,-255,0,0,0,0,55.2,12.56,6.93312,5.62688
308,0,0,1.42242,13.7609,0,0,0,0.00000000,0.00000000,0,0,-255,0,-255,0,0,0,0,55.2,12.56,6.93312,5.62688
309,0,0,1.42572,13.4544,0,0,0,0.00000000,0.00000000,0,0,-255,0,-255,0,0,0,0,56.7,12.54,7.11018,5.42982
310,0,0,1.42969,13.0869,0,0,0,0.00000000,0.00000000,0,0,-255,0,-255,0,0,0,0,56.7,12.54,7.11018,5.42982
311,0,0,1.43345,12.7403,0,0,0,0.00000000,0.00000000,0,0,-255,0,-255,0,0,0,0,58.7,12.52,7.34924,5.17076
312,0,0,1.4365,12.4598,0,0,0,0.00000000,0.00000000,0,0,-255,0,-255,0,0,0,0,58.7,12.52,7.34924,5.17076
313,0,0,1.44008,12.1314,0,0,0,0.00000000,0.00000000,0,0,-255,0,-255,0,0,0,0,59.7,12.53,7.48041,5.04959
314,0,0,1.44363,11.806,0,0,0,0.00000000,0.00000000,0,0,-255,0,-255,0,0,0,0,59.7,12.53,7.48041,5.04959
315,0,0,1.4463,11.5613,0,0,0,0.00000000,0.00000000,0,0,-255,0,-255,0,0,0,0,60.3,12.53,7.55559,4.97441
316,0,0,1.44962,11.2564,0,0,0,0.00000000,0.00000000,0,0,-255,0,-255,0,0,0,0,60.3,12.53,7.55559,4.97441
317,0,0,1.45289,10.9562,0,0,0,0.00000000,0.00000000,0,0,-255,0,-255,0,0,0,0,60.8,12.53,7.61824,4.91176
318,0,0,1.45598,10.6725,0,0,0,0.00000000,0.00000000,0,0,-255,0,-255,0,0,0,0,60.8,12.53,7.61824,4.91176
319,0,0,1.45896,10.3979,0,0,0,0.00000000,0.00000000,0,0,-255,0,-255,0,0,0,0,61.3,12.54,7.68702,4.85298
320,0,0,1.46198,10.1187,0,0,0,0.00000000,0.00000000,0,0,-255,0,-255,0,0,0,0,61.3,12.54,7.68702,4.85298
321,0,0,1.46477,9.86037,0,0,0,0.00000000,0.00000000,0,0,-255,0,-255,0,0,0,0,61.7,12.54,7.73718,4.80282
322,0,0,1.46762,9.59405,0,0,0,0.00000000,0.00000000,0,0,-255,0,-255,0,0,0,0,61.7,12.54,7.73718,4.80282
323,0,0,1.46977,9.39352,0,0,0,0.00000000,0.00000000,0,0,-255,0,-255,0,0,0,0,62.2,12.54,7.79988,4.74012
324,0,0,1.47241,9.14521,0,0,0,0.00000000,0.00000000,0,0,-255,0,-255,0,0,0,0,62.2,12.54,7.79988,4.74012
325,0,0,1.47495,8.90483,0,0,0,0.00000000,0.00000000,0,0,-255,0,-255,0,0,0,0,62.7,12.54,7.86258,4.67742
326,0,0,1.4775,8.66211,0,0,0,0.00000000,0.00000000,0,0,-255,0,-255,0,0,0,0,62.7,12.54,7.86258,4.67742
327,0,0,1.47998,8.42398,0,0,0,0.00000000,0.00000000,0,0,-255,0,-255,0,0,0,0,63.2,12.54,7.92528,4.61472
328,0,0,1.48236,8.19385,0,0,0,0.00000000,0.00000000,0,0,-255,0,-255,0,0,0,0,63.2,12.54,7.92528,4.61472
329,0,0,1.48467,7.96796,0,0,0,0.00000000,0.00000000,0,0,-255,0,-255,0,0,0,0,63.6,12.54,7.97544,4.56456
330,0,0,1.48699,7.73873,0,0,0,0.00000000,0.00000000,0,0,-255,0,-255,0,0,0,0,63.6,12.54,7.97544,4.56456
331,0,0,1.48885,7.55324,0,0,0,0.00000000,0.00000000,0,0,-255,0,-255,0,0,0,0,63.9,12.54,8.01306,4.52694
332,0,0,1.49105,7.3311,0,0,0,0.00000000,0.00000000,0,0,-255,0,-255,0,0,0,0,63.9,12.54,8.01306,4.52694
333,0,0,1.4931,7.12226,0,0,0,0.00000000,0.00000000,0,0,-255,0,-255,0,0,0,0,64.3,12.55,8.06965,4.48035
334,0,0,1.49506,6.91948,0,0,0,0.00000000,0.00000000,0,0,-255,0,-255,0,0,0,0,64.3,12.55,8.06965,4.48035
335,0,0,1.49703,6.71328,0,0,0,0.00000000,0.00000000,0,0,-255,0,-255,0,0,0,0,64.6,12.55,8.1073,4.4427
336,0,0,1.49892,6.51238,0,0,0,0.00000000,0.00000000,0,0,-255,0,-255,0,0,0,0,64.6,12.55,8.1073,4.4427
337,0,0,1.50076,6.31379,0,0,0,0.00000000,0.00000000,0,0,-255,0,-255,0,0,0,0,64.9,12.56,8.15144,4.40856
338,0,0,1.50221,6.15439,0,0,0,0.00000000,0.00000000,0,0,-255,0,-255,0,0,0,0,64.9,12.56,8.15144,4.40856
339,0,0,1.50396,5.95893,0,0,0,0.00000000,0.00000000,0,0,-255,0,-255,0,0,0,0,65.1,12.56,8.17656,4.38344
340,0,0,1.50562,5.77113,0,0,0,0.00000000,0.00000000,0,0,-255,0,-255,0,0,0,0,65.1,12.56,8.17656,4.38344
341,0,0,1.50726,5.58175,0,0,0,0.00000000,0.00000000,0,0,-255,0,-255,0,0,0,0,65.2,12.56,8.18912,4.37088
342,0,0,1.50887,5.391,0,0,0,0.00000000,0.00000000,0,0,-255,0,-255,0,0,0,0,65.2,12.56,8.18912,4.37088
343,0,0,1.51011,5.24081,0,0,0,0.00000000,0.00000000,0,0,-255,0,-255,0,0,0,0,65.2,12.56,8.18912,4.37088
344,0,0,1.51161,5.05714,0,0,0,0.00000000,0.00000000,0,0,-255,0,-255,0,0,0,0,65.2,12.56,8.18912,4.37088
345,0,0,1.513,4.88124,0,0,0,0.00000000,0.00000000,0,0,-255,0,-255,0,0,0,0,65.1,12.55,8.17005,4.37995
346,0,0,1.51436,4.70625,0,0,0,0.00000000,0.00000000,0,0,-255,0,-255,0,0,0,0,65.1,12.55,8.17005,4.37995
347,0,0,1.51566,4.53308,0,0,0,0.00000000,0.00000000,0,0,-255,0,-255,0,0,0,0,65.1,12.55,8.17005,4.37995
348,0,0,1.51692,4.36114,0,0,0,0.00000000,0.00000000,0,0,-255,0,-255,0,0,0,0,65.1,12.55,8.17005,4.37995
349,0,0,1.51814,4.18976,0,0,0,0.00000000,0.00000000,0,0,-255,0,-255,0,0,0,0,65.4,12.56,8.21424,4.34576
350,0,0,1.51931,4.0213,0,0,0,0.00000000,0.00000000,0,0,-255,0,-255,0,0,0,0,65.4,12.56,8.21424,4.34576
351,0,0,1.52043,3.8536,0,0,0,0.00000000,0.00000000,0,0,-255,0,-255,0,0,0,0,65.1,12.57,8.18307,4.38693
352,0,0,1.5215,3.68736,0,0,0,0.00000000,0.00000000,0,0,-255,0,-255,0,0,0,0,65.1,12.57,8.18307,4.38693
353,0,0,1.52254,3.51957,0,0,0,0.00000000,0.00000000,0,0,-255,0,-255,0,0,0,0,65.2,12.58,8.20216,4.37784
354,0,0,1.52355,3.35187,0,0,0,0.00000000,0.00000000,0,0,-255,0,-255,0,0,0,0,64.8,12.59,8.15832,4.43168
355,0,0,1.52431,3.21865,0,0,0,0.00000000,0.00000000,0,0,-255,0,-255,0,0,0,0,64.8,12.59,8.15832,4.43168
356,34,0,1.52525,3.61986,0,143,0,0.00000000,0.00000000,0,0,-255,0,-255,0,0,0,0,64.8,12.59,8.15832,4.43168
357,73,0,1.52687,7.30914,0,150,0,0.00000000,0.00000000,0,0,-255,0,-255,0,0,0,0,63,12.54,7.9002,4.6398
358,1,0,1.5292,9.01589,0,96,0,0.00000000,0.00000000,0,0,-255,0,-255,0,0,0,0,63,12.54,7.9002,4.6398
359,71,0,1.53189,9.98798,0,67,0,0.00000000,0.00000000,0,0,-255,0,-255,0,0,0,0,61.9,12.51,7.74369,4.76631
360,86,0,1.53482,10.7159,0,50,0,0.00000000,0.00000000,0,0,-255,0,-255,0,0,0,0,61.5,12.53,7.70595,4.82405
361,93,0,1.53732,11.1149,0,56,0,0.00000000,0.00000000,0,0,-255,0,-255,0,0,0,0,61.5,12.53,7.70595,4.82405
362,91,0,1.54069,11.8024,0,73,0,0.00000000,0.00000000,0,0,-255,0,-255,0,0,0,0,61.5,12.53,7.70595,4.82405
363,93,0,1.54414,12.7591,0,133,0,0.00000000,0.00000000,0,0,-255,0,-255,0,0,0,0,61.1,12.56,7.67416,4.88584
364,91,0,1.54803,13.4859,0,85,0,0.00000000,0.00000000,0,0,-255,0,-255,0,0,0,0,61.1,12.56,7.67416,4.88584
365,91,0,1.55202,14.2472,0,105,0,0.00000000,0.00000000,0,0,-255,0,-255,0,0,0,0,61.1,12.59,7.69249,4.89751
366,91,0,1.55613,14.9445,0,95,0,0.00000000,0.00000000,0,0,-255,0,-255,0,0,0,0,61.1,12.59,7.69249,4.89751
367,90,0,1.56052,15.5376,0,91,0,0.00000000,0.00000000,0,0,-255,0,-255,0,0,0,0,62.2,12.67,7.88074,4.78926
368,90,0,1.56421,16.0052,0,99,0,0.00000000,0.00000000,0,0,-255,0,-255,0,0,0,0,62.2,12.67,7.88074,4.78926
369,91,0,1.56882,16.5794,0,104,0,0.00000000,0.00000000,0,0,-255,0,-255,0,0,0,0,62,12.73,7.8926,4.8374
370,90,0,1.57375,17.1465,0,107,0,0.00000000,0.00000000,0,0,-255,0,-255,0,0,0,0,61.1,12.73,7.77803,4.95197
371,90,0,1.57866,17.6015,0,86,0,0.00000000,0.00000000,0,0,-255,0,-255,0,0,0,0,61.1,12.73,7.77803,4.95197
372,88,0,1.58366,17.9434,0,119,0,0.00000000,0.00000000,0,0,-255,0,-255,0,0,0,0,61.1,12.73,7.77803,4.95197
373,89,0,1.5888,18.4711,0,116,0,0.00000000,0.00000000,0,0,-255,0,-255,0,0,0,0,59.1,12.73,7.52343,5.20657
374,89,0,1.59407,18.8858,0,106,0,0.00000000,0.00000000,0,0,-255,0,-255,0,0,0,0,59.1,12.73,7.52343,5.20657
375,90,0,1.59952,19.262,0,107,0,0.00000000,0.00000000,0,0,-255,0,-255,0,0,0,0,56.4,12.72,7.17408,5.54592
376,90,0,1.60502,19.586,0,109,0,0.00000000,0.00000000,0,0,-255,0,-255,0,0,0,0,56.4,12.72,7.17408,5.54592
377,91,0,1.60948,19.8223,0,103,0,0.00000000,0.00000000,0,0,-255,0,-255,0,0,0,0,53.6,12.71,6.81256,5.89744
378,91,0,1.61525,20.1173,0,117,0,0.00000000,0.00000000,0,0,-255,0,-255,0,0,0,0,53.6,12.71,6.81256,5.89744
379,91,0,1.62102,20.4067,0,95,0,0.00000000,0.00000000,0,0,-255,0,-255,0,0,0,0,51.1,12.7,6.4897,6.2103
380,92,0,1.62677,20.4838,0,85,0,0.00000000,0.00000000,0,0,-255,0,-255,0,0,0,0,49,12.69,6.2181,6.4719
381,91,0,1.63259,20.8338,0,132,0,0.00000000,0.00000000,0,0,-255,0,-255,0,0,0,0,49,12.69,6.2181,6.4719
383,89,0,1.63849,20.9722,0,124,0,0.00000000,0.00000000,0,0,-255,0,-255,0,0,0,0,47.2,12.69,5.98968,6.70032
384,90,0,1.64444,21.2143,0,104,0,0.00000000,0.00000000,0,0,-255,0,-255,0,0,0,0,47.2,12.69,5.98968,6.70032
385,91,0,1.65058,21.48,0,120,0,0.00000000,0.00000000,0,0,-255,0,-255,0,0,0,0,46.2,12.69,5.86278,6.82722
386,91,0,1.65666,21.6557,0,102,0,0.00000000,0.00000000,0,0,-255,0,-255,0,0,0,0,46.2,12.69,5.86278,6.82722
387,91,0,1.66275,21.8471,0,124,0,0.00000000,0.00000000,0,0,-255,0,-255,0,0,0,0,45.9,12.68,5.82012,6.85988
388,91,0,1.66905,21.9201,0,92,0,0.00000000,0.00000000,0,0,-255,0,-255,0,0,0,0,45.9,12.68,5.82012,6.85988
389,90,0,1.6752,21.9387,0,106,0,0.00000000,0.00000000,0,0,-255,0,-255,0,0,0,0,45.7,12.68,5.79476,6.88524
390,93,0,1.68147,22.1525,0,118,0,0.00000000,0.00000000,0,0,-255,0,-255,0,0,0,0,45.7,12.68,5.79476,6.88524
391,93,0,1.68781,22.2925,0,101,0,0.00000000,0.00000000,0,0,-255,0,-255,0,0,0,0,45.7,12.68,5.79476,6.88524
392,91,0,1.6941,22.3883,0,97,0,0.00000000,0.00000000,0,0,-255,0,-255,0,0,0,0,45.8,12.68,5.80744,6.87256
393,90,0,1.70047,22.4225,0,133,0,0.00000000,0.00000000,0,0,-255,0,-255,0,0,0,0,46.5,12.67,5.89155,6.77845
394,92,0,1.70551,22.7302,0,163,0,0.00000000,0.00000000,0,0,-255,0,-255,0,0,0,0,46.5,12.67,5.89155,6.77845
395,93,0,1.71219,22.9499,0,124,0,0.00000000,0.00000000,0,0,-255,0,-255,0,0,0,0,46.5,12.67,5.89155,6.77845
396,90,0,1.71885,23.0816,0,120,0,0.00000000,0.00000000,0,0,-255,0,-255,0,0,0,0,47.6,12.68,6.03568,6.64432
397,90,0,1.72543,23.2571,0,139,0,0.00000000,0.00000000,0,0,-255,0,-255,0,0,0,0,48.4,12.68,6.13712,6.54288
398,91,0,1.73201,23.4414,0,129,0,0.00000000,0.00000000,0,0,-255,0,-255,0,0,0,0,48.4,12.68,6.13712,6.54288
399,90,0,1.73863,23.5285,0,113,0,0.00000000,0.00000000,0,0,-255,0,-255,0,0,0,0,48.9,12.68,6.20052,6.47948
400,89,0,1.74534,23.5751,0,122,0,0.00000000,0.00000000,0,0,-255,0,-255,0,0,0,0,48.9,12.68,6.20052,6.47948
401,88,0,1.75205,23.6678,0,128,0,0.00000000,0.00000000,0,0,-255,0,-255,0,0,0,0,49.2,12.68,6.23856,6.44144
402,90,0,1.7574,23.8081,0,138,0,0.00000000,0.00000000,0,0,-255,0,-255,0,0,0,0,49.2,12.68,6.23856,6.44144
403,89,0,1.76452,24.0185,0,160,0,0.00000000,0.00000000,0,0,-255,0,-255,0,0,0,0,49.2,12.68,6.23856,6.44144
404,92,0,1.77155,24.3011,0,111,0,0.00000000,0.00000000,0,0,-255,0,-255,0,0,0,0,49.3,12.68,6.25124,6.42876
405,91,0,1.7786,24.2466,0,108,0,0.00000000,0.00000000,0,0,-255,0,-255,0,0,0,0,49.3,12.68,6.25124,6.42876
406,87,0,1.78438,24.1652,0,87,0,0.00000000,0.00000000,0,0,-255,0,-255,0,0,0,0,48.8,12.68,6.18784,6.49216
407,87,0,1.79133,23.9863,0,116,0,0.00000000,0.00000000,0,0,-255,0,-255,0,0,0,0,48.8,12.68,6.18784,6.49216
408,85,0,1.79827,24.0111,0,123,0,0.00000000,0.00000000,0,0,-255,0,-255,0,0,0,0,48,12.67,6.0816,6.5884
409,85,0,1.80519,24.0446,0,112,0,0.00000000,0.00000000,0,0,-255,0,-255,0,0,0,0,48,12.67,6.0816,6.5884
410,85,0,1.81199,24.0353,0,122,0,0.00000000,0.00000000,0,0,-255,0,-255,0,0,0,0,47.1,12.67,5.96757,6.70243
411,81,0,1.81869,23.9819,0,106,0,0.00000000,0.00000000,0,0,-255,0,-255,0,0,0,0,45,12.68,5.706,6.974
412,80,0,1.82551,24.011,0,131,0,0.00000000,0.00000000,0,0,-255,0,-255,0,0,0,0,45,12.68,5.706,6.974
413,91,0,1.83238,24.3577,0,274,0,0.00000000,0.00000000,0,0,-255,0,-255,0,0,0,0,45,12.68,5.706,6.974
414,92,0,1.83936,24.7875,0,104,0,0.00000000,0.00000000,0,0,-255,0,-255,0,0,0,0,42,12.68,5.3256,7.3544
415,92,0,1.84637,24.7421,0,123,0,0.00000000,0.00000000,0,0,-255,0,-255,0,0,0,0,35.5,12.58,4.4659,8.1141
416,90,0,1.85348,24.7981,0,148,0,0.00000000,0.00000000,0,0,-255,0,-255,0,0,0,0,35.5,12.58,4.4659,8.1141
417,91,0,1.85917,24.9183,0,148,0,0.00000000,0.00000000,0,0,-255,0,-255,0,0,0,0,33.1,12.59,4.16729,8.42271
418,90,0,1.86619,24.9673,0,131,0,0.00000000,0.00000000,0,0,-255,0,-255,0,0,0,0,33.1,12.59,4.16729,8.42271
419,90,0,1.87336,24.9705,0,126,0,0.00000000,0.00000000,0,0,-255,0,-255,0,0,0,0,30.9,12.59,3.89031,8.69969
420,89,0,1.88043,24.969,0,131,0,0.00000000,0.00000000,0,0,-255,0,-255,0,0,0,0,30.9,12.59,3.89031,8.69969
421,90,0,1.88748,25.0599,0,146,0,0.00000000,0.00000000,0,0,-255,0,-255,0,0,0,0,29.9,12.6,3.7674,8.8326
422,91,0,1.89461,25.1241,0,144,0,0.00000000,0.00000000,0,0,-255,0,-255,0,0,0,0,29.9,12.6,3.7674,8.8326
423,90,0,1.90187,25.0394,0,105,0,0.00000000,0.00000000,0,0,-255,0,-255,0,0,0,0,30.4,12.6,3.8304,8.7696
424,89,0,1.90888,25.0054,0,137,0,0.00000000,0.00000000,0,0,-255,0,-255,0,0,0,0,30.4,12.6,3.8304,8.7696
425,92,0,1.91603,25.2001,0,145,0,0.00000000,0.00000000,0,0,-255,0,-255,0,0,0,0,35.4,12.7,4.4958,8.2042
426,92,0,1.92305,25.2824,0,142,0,0.00000000,0.00000000,0,0,-255,0,-255,0,0,0,0,35.4,12.7,4.4958,8.2042
427,92,0,1.9302,25.379,0,149,0,0.00000000,0.00000000,0,0,-255,0,-255,0,0,0,0,36.4,12.7,4.6228,8.0772
428,93,0,1.93748,25.4722,0,142,0,0.00000000,0.00000000,0,0,-255,0,-255,0,0,0,0,36.4,12.7,4.6228,8.0772
429,91,0,1.9448,25.6031,0,164,0,0.00000000,0.00000000,0,0,-255,0,-255,0,0,0,0,38,12.7,4.826,7.874
430,91,0,1.95071,25.7462,0,164,0,0.00000000,0.00000000,0,0,-255,0,-255,0,0,0,0,38,12.7,4.826,7.874
431,91,0,1.95822,25.8894,0,132,0,0.00000000,0.00000000,0,0,-255,0,-255,0,0,0,0,38,12.7,4.826,7.874
432,92,0,1.96565,25.9782,0,175,0,0.00000000,0.00000000,0,0,-255,0,-255,0,0,0,0,40,12.7,5.08,7.62
433,91,0,1.97319,26.0409,0,136,0,0.00000000,0.00000000,0,0,-255,0,-255,0,0,0,0,41.1,12.7,5.2197,7.4803
434,90,0,1.98055,26.1066,0,168,0,0.00000000,0.00000000,0,0,-255,0,-255,0,0,0,0,41.1,12.7,5.2197,7.4803
435,94,0,1.98809,26.365,0,129,0,0.00000000,0.00000000,0,0,-255,0,-255,0,0,0,0,41.5,12.7,5.2705,7.4295
436,95,0,1.99569,26.1057,0,132,0,0.00000000,0.00000000,0,0,-255,0,-255,0,0,0,0,41.5,12.7,5.2705,7.4295
437,92,0,2.00173,26.0864,0,150,0,0.00000000,0.00000000,0,0,-255,0,-255,0,0,0,0,41.3,12.69,5.24097,7.44903
438,91,0,2.0091,26.1326,0,157,0,0.00000000,0.00000000,0,0,-255,0,-255,0,0,0,0,41.3,12.69,5.24097,7.44903
439,91,0,2.01659,26.2098,0,145,0,0.00000000,0.00000000,0,0,-255,0,-255,0,0,0,0,41.3,12.69,5.24097,7.44903
440,90,0,2.02404,26.261,0,164,0,0.00000000,0.00000000,0,0,-255,0,-255,0,0,0,0,41.4,12.69,5.25366,7.43634
441,92,0,2.03142,26.3574,0,155,0,0.00000000,0.00000000,0,0,-255,0,-255,0,0,0,0,40.7,12.68,5.16076,7.51924
442,91,0,2.03912,26.4271,0,166,0,0.00000000,0.00000000,0,0,-255,0,-255,0,0,0,0,40.7,12.68,5.16076,7.51924
443,92,0,2.04692,26.4753,0,166,0,0.00000000,0.00000000,0,0,-255,0,-255,0,0,0,0,40,12.69,5.076,7.614
444,91,0,2.05322,26.5482,0,168,0,0.00000000,0.00000000,0,0,-255,0,-255,0,0,0,0,40,12.69,5.076,7.614
445,91,0,2.06089,26.6446,0,159,0,0.00000000,0.00000000,0,0,-255,0,-255,0,0,0,0,39.4,12.69,4.99986,7.69014
446,92,0,2.06855,26.7355,0,181,0,0.00000000,0.00000000,0,0,-255,0,-255,0,0,0,0,39.4,12.69,4.99986,7.69014
447,93,0,2.07621,26.7853,0,153,0,0.00000000,0.00000000,0,0,-255,0,-255,0,0,0,0,40.2,12.69,5.10138,7.58862
448,92,0,2.08375,26.694,0,128,0,0.00000000,0.00000000,0,0,-255,0,-255,0,0,0,0,40.2,12.69,5.10138,7.58862
449,90,0,2.09132,26.5793,0,136,0,0.00000000,0.00000000,0,0,-255,0,-255,0,0,0,0,40.3,12.69,5.11407,7.57593
450,93,0,2.09748,26.7071,0,169,0,0.00000000,0.00000000,0,0,-255,0,-255,0,0,0,0,40.3,12.69,5.11407,7.57593
451,92,0,2.10513,26.7704,0,156,0,0.00000000,0.00000000,0,0,-255,0,-255,0,0,0,0,40.2,12.7,5.1054,7.5946
452,91,0,2.1128,26.7123,0,166,0,0.00000000,0.00000000,0,0,-255,0,-255,0,0,0,0,40.2,12.7,5.1054,7.5946
453,94,0,2.12047,26.9195,0,195,0,0.00000000,0.00000000,0,0,-255,0,-255,0,0,0,0,40.3,12.7,5.1181,7.5819
454,93,0,2.12806,26.9484,0,156,0,0.00000000,0.00000000,0,0,-255,0,-255,0,0,0,0,40.3,12.7,5.1181,7.5819
455,93,0,2.13595,27.0665,0,178,0,0.00000000,0.00000000,0,0,-255,0,-255,0,0,0,0,40.7,12.7,5.1689,7.5311
456,90,0,2.1425,27.0692,0,177,0,0.00000000,0.00000000,0,0,-255,0,-255,0,0,0,0,40.7,12.7,5.1689,7.5311
457,91,0,2.15052,27.1975,0,181,0,0.00000000,0.00000000,0,0,-255,0,-255,0,0,0,0,40.3,12.7,5.1181,7.5819
458,90,0,2.15852,27.3005,0,178,0,0.00000000,0.00000000,0,0,-255,0,-255,0,0,0,0,40.3,12.7,5.1181,7.5819
459,92,0,2.16629,27.5097,0,216,0,0.00000000,0.00000000,0,0,-255,0,-255,0,0,0,0,39.6,12.7,5.0292,7.6708
460,93,0,2.17255,27.654,0,185,0,0.00000000,0.00000000,0,0,-255,0,-255,0,0,0,0,39.6,12.7,5.0292,7.6708
461,95,0,2.18039,27.8361,0,211,0,0.00000000,0.00000000,0,0,-255,0,-255,0,0,0,0,39.5,12.7,5.0165,7.6835
462,92,0,2.18821,27.8867,0,143,0,0.00000000,0.00000000,0,0,-255,0,-255,0,0,0,0,39.5,12.7,5.0165,7.6835
463,91,0,2.19614,27.7928,0,178,0,0.00000000,0.00000000,0,0,-255,0,-255,0,0,0,0,39.7,12.7,5.0419,7.6581
464,93,0,2.20429,27.8827,0,182,0,0.00000000,0.00000000,0,0,-255,0,-255,0,0,0,0,39.7,12.7,5.0419,7.6581
465,93,0,2.21228,28.0037,0,178,0,0.00000000,0.00000000,0,0,-255,0,-255,0,0,0,0,39.1,12.71,4.96961,7.74039
466,92,0,2.22024,28.0067,0,167,0,0.00000000,0.00000000,0,0,-255,0,-255,0,0,0,0,39.1,12.71,4.96961,7.74039
467,92,0,2.22673,28.0405,0,181,0,0.00000000,0.00000000,0,0,-255,0,-255,0,0,0,0,39.1,12.71,4.96961,7.74039
468,92,0,2.23465,28.1129,0,193,0,0.00000000,0.00000000,0,0,-255,0,-255,0,0,0,0,38.6,12.71,4.90606,7.80394
469,92,0,2.2428,28.1323,0,163,0,0.00000000,0.00000000,0,0,-255,0,-255,0,0,0,0,38.7,12.71,4.91877,7.79123
470,92,0,2.25094,28.1651,0,188,0,0.00000000,0.00000000,0,0,-255,0,-255,0,0,0,0,38.7,12.71,4.91877,7.79123
471,92,0,2.25888,28.1922,0,162,0,0.00000000,0.00000000,0,0,-255,0,-255,0,0,0,0,38.8,12.71,4.93148,7.77852
472,92,0,2.26681,28.1678,0,179,0,0.00000000,0.00000000,0,0,-255,0,-255,0,0,0,0,38.8,12.71,4.93148,7.77852
473,92,0,2.27475,28.1628,0,173,0,0.00000000,0.00000000,0,0,-255,0,-255,0,0,0,0,38.8,12.71,4.93148,7.77852
474,93,0,2.28264,28.1696,0,177,0,0.00000000,0.00000000,0,0,-255,0,-255,0,0,0,0,38.2,12.71,4.85522,7.85478
475,93,0,2.29066,28.2111,0,184,0,0.00000000,0.00000000,0,0,-255,0,-255,0,0,0,0,38.3,12.7,4.8641,7.8359
476,92,0,2.29863,28.2498,0,180,0,0.00000000,0.00000000,0,0,-255,0,-255,0,0,0,0,38.3,12.7,4.8641,7.8359
477,92,0,2.30655,28.2682,0,178,0,0.00000000,0.00000000,0,0,-255,0,-255,0,0,0,0,39,12.7,4.953,7.747
478,92,0,2.31304,28.2723,0,172,0,0.00000000,0.00000000,0,0,-255,0,-255,0,0,0,0,39,12.7,4.953,7.747
479,92,0,2.32117,28.2595,0,175,0,0.00000000,0.00000000,0,0,-255,0,-255,0,0,0,0,39,12.71,4.9569,7.7531
480,91,0,2.32935,28.2526,0,175,0,0.00000000,0.00000000,0,0,-255,0,-255,0,0,0,0,39,12.71,4.9569,7.7531
481,92,0,2.33748,28.2646,0,175,0,0.00000000,0.00000000,0,0,-255,0,-255,0,0,0,0,38.5,12.71,4.89335,7.81665
482,91,0,2.34568,28.3579,0,207,0,0.00000000,0.00000000,0,0,-255,0,-255,0,0,0,0,38.5,12.71,4.89335,7.81665
483,91,0,2.35393,28.5315,0,212,0,0.00000000,0.00000000,0,0,-255,0,-255,0,0,0,0,38.7,12.71,4.91877,7.79123
484,92,0,2.36195,28.6875,0,209,0,0.00000000,0.00000000,0,0,-255,0,-255,0,0,0,0,38.7,12.71,4.91877,7.79123
485,92,0,2.37007,28.8433,0,215,0,0.00000000,0.00000000,0,0,-255,0,-255,0,0,0,0,38.9,12.71,4.94419,7.76581
486,91,0,2.37661,28.8956,0,222,0,0.00000000,0.00000000,0,0,-255,0,-255,0,0,0,0,38.9,12.71,4.94419,7.76581
487,92,0,2.3848,29.0677,0,192,0,0.00000000,0.00000000,0,0,-255,0,-255,0,0,0,0,38.3,12.71,4.86793,7.84207
488,90,0,2.39298,29.1397,0,209,0,0.00000000,0.00000000,0,0,-255,0,-255,0,0,0,0,38.3,12.71,4.86793,7.84207
489,91,0,2.40124,29.279,0,206,0,0.00000000,0.00000000,0,0,-255,0,-255,0,0,0,0,38.3,12.71,4.86793,7.84207
490,91,0,2.40951,29.3278,0,217,0,0.00000000,0.00000000,0,0,-255,0,-255,0,0,0,0,38.1,12.71,4.84251,7.86749
491,91,0,2.41776,29.4434,0,216,0,0.00000000,0.00000000,0,0,-255,0,-255,0,0,0,0,38.6,12.71,4.90606,7.80394
492,91,0,2.42613,29.4518,0,191,0,0.00000000,0.00000000,0,0,-255,0,-255,0,0,0,0,38.6,12.71,4.90606,7.80394
493,91,0,2.43435,29.4807,0,188,0,0.00000000,0.00000000,0,0,-255,0,-255,0,0,0,0,38.6,12.71,4.90606,7.80394
494,91,0,2.44269,29.4428,0,210,0,0.00000000,0.00000000,0,0,-255,0,-255,0,0,0,0,38.4,12.71,4.88064,7.82936
495,92,0,2.4512,29.5528,0,233,0,0.00000000,0.00000000,0,0,-255,0,-255,0,0,0,0,37.5,12.72,4.77,7.95
496,93,0,2.45947,29.6719,0,195,0,0.00000000,0.00000000,0,0,-255,0,-255,0,0,0,0,37.5,12.72,4.77,7.95
497,92,0,2.46785,29.6489,0,206,0,0.00000000,0.00000000,0,0,-255,0,-255,0,0,0,0,37,12.72,4.7064,8.0136
498,93,0,2.47465,29.6727,0,206,0,0.00000000,0.00000000,0,0,-255,0,-255,0,0,0,0,37,12.72,4.7064,8.0136
499,91,0,2.48326,29.6729,0,205,0,0.00000000,0.00000000,0,0,-255,0,-255,0,0,0,0,36.7,12.72,4.66824,8.05176
500,92,0,2.49174,29.6481,0,196,0,0.00000000,0.00000000,0,0,-255,0,-255,0,0,0,0,36.7,12.72,4.66824,8.05176
501,92,0,2.50006,29.7049,0,199,0,0.00000000,0.00000000,0,0,-255,0,-255,0,0,0,0,36,12.72,4.5792,8.1408
502,93,0,2.50838,29.6959,0,207,0,0.00000000,0.00000000,0,0,-255,0,-255,0,0,0,0,36,12.72,4.5792,8.1408
503,93,0,2.51689,29.7326,0,188,0,0.00000000,0.00000000,0,0,-255,0,-255,0,0,0,0,36,12.72,4.5792,8.1408
504,92,0,2.52546,29.728,0,229,0,0.00000000,0.00000000,0,0,-255,0,-255,0,0,0,0,36,12.72,4.5792,8.1408
505,92,0,2.53386,29.7667,0,186,0,0.00000000,0.00000000,0,0,-255,0,-255,0,0,0,0,36.5,12.72,4.6428,8.0772
506,91,0,2.54227,29.7485,0,205,0,0.00000000,0.00000000,0,0,-255,0,-255,0,0,0,0,36.5,12.72,4.6428,8.0772
507,93,0,2.55069,29.7437,0,200,0,0.00000000,0.00000000,0,0,-255,0,-255,0,0,0,0,36.8,12.72,4.68096,8.03904
508,93,0,2.55903,29.7408,0,197,0,0.00000000,0.00000000,0,0,-255,0,-255,0,0,0,0,36.8,12.72,4.68096,8.03904
509,93,0,2.56572,29.7412,0,203,0,0.00000000,0.00000000,0,0,-255,0,-255,0,0,0,0,36.8,12.72,4.68096,8.03904
510,93,0,2.57408,29.7507,0,205,0,0.00000000,0.00000000,0,0,-255,0,-255,0,0,0,0,36.8,12.72,4.68096,8.03904
511,93,0,2.58264,29.7185,0,208,0,0.00000000,0.00000000,0,0,-255,0,-255,0,0,0,0,36.8,12.72,4.68096,8.03904
512,94,0,2.59098,29.7414,0,224,0,0.00000000,0.00000000,0,0,-255,0,-255,0,0,0,0,36.9,12.72,4.69368,8.02632
513,93,0,2.59945,29.837,0,211,0,0.00000000,0.00000000,0,0,-255,0,-255,0,0,0,0,36.7,12.72,4.66824,8.05176
514,95,0,2.60785,30.0349,0,232,0,0.00000000,0.00000000,0,0,-255,0,-255,0,0,0,0,36.7,12.72,4.66824,8.05176
515,94,0,2.61643,30.1326,0,221,0,0.00000000,0.00000000,0,0,-255,0,-255,0,0,0,0,36,12.72,4.5792,8.1408
516,93,0,2.62492,30.1499,0,205,0,0.00000000,0.00000000,0,0,-255,0,-255,0,0,0,0,36,12.72,4.5792,8.1408
517,93,0,2.63345,30.3183,0,250,0,0.00000000,0.00000000,0,0,-255,0,-255,0,0,0,0,35.2,12.73,4.48096,8.24904
518,94,0,2.64203,30.4062,0,213,0,0.00000000,0.00000000,0,0,-255,0,-255,0,0,0,0,35.2,12.73,4.48096,8.24904
519,93,0,2.65058,30.331,0,195,0,0.00000000,0.00000000,0,0,-255,0,-255,0,0,0,0,34.8,12.73,4.43004,8.29996
520,93,0,2.65924,30.4158,0,252,0,0.00000000,0.00000000,0,0,-255,0,-255,0,0,0,0,34.8,12.73,4.43004,8.29996
521,93,0,2.66795,30.5744,0,249,0,0.00000000,0.00000000,0,0,-255,0,-255,0,0,0,0,34.3,12.74,4.36982,8.37018
522,92,0,2.67657,30.666,0,223,0,0.00000000,0.00000000,0,0,-255,0,-255,0,0,0,0,34.3,12.74,4.36982,8.37018
523,91,0,2.68357,30.6537,0,247,0,0.00000000,0.00000000,0,0,-255,0,-255,0,0,0,0,33.4,12.74,4.25516,8.48484
524,92,0,2.69222,30.7669,0,230,0,0.00000000,0.00000000,0,0,-255,0,-255,0,0,0,0,33.4,12.74,4.25516,8.48484
525,92,0,2.70086,30.7813,0,220,0,0.00000000,0.00000000,0,0,-255,0,-255,0,0,0,0,33.1,12.74,4.21694,8.52306
526,91,0,2.70953,30.7963,0,219,0,0.00000000,0.00000000,0,0,-255,0,-255,0,0,0,0,33.1,12.74,4.21694,8.52306
527,93,0,2.71829,30.8905,0,258,0,0.00000000,0.00000000,0,0,-255,0,-255,0,0,0,0,32.9,12.73,4.18817,8.54183
528,93,0,2.72708,31.0627,0,258,0,0.00000000,0.00000000,0,0,-255,0,-255,0,0,0,0,32.9,12.73,4.18817,8.54183
529,92,0,2.736,31.0113,0,254,0,0.00000000,0.00000000,0,0,-255,0,-255,0,0,0,0,32.9,12.73,4.18817,8.54183
530,92,0,2.74489,31.0599,0,219,0,0.00000000,0.00000000,0,0,-255,0,-255,0,0,0,0,31.9,12.73,4.06087,8.66913
531,91,0,2.75376,31.0604,0,253,0,0.00000000,0.00000000,0,0,-255,0,-255,0,0,0,0,31.5,12.73,4.00995,8.72005
532,92,0,2.76252,31.1852,0,251,0,0.00000000,0.00000000,0,0,-255,0,-255,0,0,0,0,31.5,12.73,4.00995,8.72005
533,93,0,2.77125,31.262,0,227,0,0.00000000,0.00000000,0,0,-255,0,-255,0,0,0,0,31.7,12.74,4.03858,8.70142
534,93,0,2.77844,31.2418,0,226,0,0.00000000,0.00000000,0,0,-255,0,-255,0,0,0,0,31.7,12.74,4.03858,8.70142
535,92,0,2.78758,31.2997,0,244,0,0.00000000,0.00000000,0,0,-255,0,-255,0,0,0,0,31.3,12.74,3.98762,8.75238
536,92,0,2.79644,31.2634,0,224,0,0.00000000,0.00000000,0,0,-255,0,-255,0,0,0,0,31.3,12.74,3.98762,8.75238
537,92,0,2.80526,31.253,0,232,0,0.00000000,0.00000000,0,0,-255,0,-255,0,0,0,0,30.9,12.74,3.93666,8.80334
538,92,0,2.81407,31.225,0,220,0,0.00000000,0.00000000,0,0,-255,0,-255,0,0,0,0,30.9,12.74,3.93666,8.80334
539,92,0,2.82305,31.2238,0,230,0,0.00000000,0.00000000,0,0,-255,0,-255,0,0,0,0,31,12.74,3.9494,8.7906
540,93,0,2.83182,31.2657,0,239,0,0.00000000,0.00000000,0,0,-255,0,-255,0,0,0,0,31,12.74,3.9494,8.7906
541,94,0,2.84058,31.2237,0,208,0,0.00000000,0.00000000,0,0,-255,0,-255,0,0,0,0,30.6,12.74,3.89844,8.84156
542,90,0,2.84943,31.1901,0,276,0,0.00000000,0.00000000,0,0,-255,0,-255,0,0,0,0,30.6,12.74,3.89844,8.84156
543,93,0,2.85837,31.4854,0,300,0,0.00000000,0.00000000,0,0,-255,0,-255,0,0,0,0,29.9,12.74,3.80926,8.93074
544,93,0,2.86545,31.5258,0,239,0,0.00000000,0.00000000,0,0,-255,0,-255,0,0,0,0,29.9,12.74,3.80926,8.93074
545,94,0,2.87459,31.525,0,259,0,0.00000000,0.00000000,0,0,-255,0,-255,0,0,0,0,29.6,12.74,3.77104,8.96896
546,94,0,2.8834,31.6894,0,245,0,0.00000000,0.00000000,0,0,-255,0,-255,0,0,0,0,29.6,12.74,3.77104,8.96896
547,93,0,2.8926,31.6358,0,215,0,0.00000000,0.00000000,0,0,-255,0,-255,0,0,0,0,29.4,12.74,3.74556,8.99444
548,95,0,2.90176,31.7408,0,272,0,0.00000000,0.00000000,0,0,-255,0,-255,0,0,0,0,29.4,12.74,3.74556,8.99444
549,93,0,2.91068,31.8815,0,266,0,0.00000000,0.00000000,0,0,-255,0,-255,0,0,0,0,29.7,12.75,3.78675,8.96325
550,93,0,2.91982,31.9533,0,259,0,0.00000000,0.00000000,0,0,-255,0,-255,0,0,0,0,29.7,12.75,3.78675,8.96325
551,93,0,2.92884,31.9564,0,243,0,0.00000000,0.00000000,0,0,-255,0,-255,0,0,0,0,29.2,12.74,3.72008,9.01992
552,92,0,2.93616,31.9751,0,262,0,0.00000000,0.00000000,0,0,-255,0,-255,0,0,0,0,29.2,12.74,3.72008,9.01992
553,93,0,2.9453,32.0182,0,249,0,0.00000000,0.00000000,0,0,-255,0,-255,0,0,0,0,28.5,12.74,3.6309,9.1091
554,92,0,2.95434,32.0095,0,249,0,0.00000000,0.00000000,0,0,-255,0,-255,0,0,0,0,28.5,12.74,3.6309,9.1091
555,93,0,2.96337,32.0108,0,256,0,0.00000000,0.00000000,0,0,-255,0,-255,0,0,0,0,28.1,12.74,3.57994,9.16006
556,93,0,2.97237,32.0219,0,243,0,0.00000000,0.00000000,0,0,-255,0,-255,0,0,0,0,28.1,12.74,3.57994,9.16006
557,93,0,2.98139,32.0349,0,248,0,0.00000000,0.00000000,0,0,-255,0,-255,0,0,0,0,28,12.74,3.5672,9.1728
558,93,0,2.99058,32.0524,0,254,0,0.00000000,0.00000000,0,0,-255,0,-255,0,0,0,0,28,12.74,3.5672,9.1728
559,93,0,2.99971,32.0574,0,221,0,0.00000000,0.00000000,0,0,-255,0,-255,0,0,0,0,27.6,12.74,3.51624,9.22376
560,93,0,3.00874,32.1359,0,261,0,0.00000000,0.00000000,0,0,-255,0,-255,0,0,0,0,27.6,12.74,3.51624,9.22376
561,92,0,3.01793,32.1592,0,240,0,0.00000000,0.00000000,0,0,-255,0,-255,0,0,0,0,27.5,12.74,3.5035,9.2365
562,91,0,3.02688,32.147,0,242,0,0.00000000,0.00000000,0,0,-255,0,-255,0,0,0,0,27.5,12.74,3.5035,9.2365
563,91,0,3.036,32.1246,0,253,0,0.00000000,0.00000000,0,0,-255,0,-255,0,0,0,0,28.1,12.75,3.58275,9.16725
564,93,0,3.0432,32.1626,0,260,0,0.00000000,0.00000000,0,0,-255,0,-255,0,0,0,0,28.1,12.75,3.58275,9.16725
565,93,0,3.05243,32.1447,0,245,0,0.00000000,0.00000000,0,0,-255,0,-255,0,0,0,0,28.5,12.75,3.63375,9.11625
566,91,0,3.06162,32.059,0,235,0,0.00000000,0.00000000,0,0,-255,0,-255,0,0,0,0,28.5,12.75,3.63375,9.11625
567,90,0,3.07067,31.9943,0,235,0,0.00000000,0.00000000,0,0,-255,0,-255,0,0,0,0,28.4,12.75,3.621,9.129
568,89,0,3.07978,32.0306,0,283,0,0.00000000,0.00000000,0,0,-255,0,-255,0,0,0,0,28.4,12.75,3.621,9.129
569,90,0,3.08884,32.1559,0,252,0,0.00000000,0.00000000,0,0,-255,0,-255,0,0,0,0,27.9,12.75,3.55725,9.19275
570,90,0,3.09791,32.1683,0,283,0,0.00000000,0.00000000,0,0,-255,0,-255,0,0,0,0,27.9,12.75,3.55725,9.19275
571,91,0,3.10703,32.3492,0,297,0,0.00000000,0.00000000,0,0,-255,0,-255,0,0,0,0,27.7,12.75,3.53175,9.21825
572,96,0,3.11627,32.5837,0,319,0,0.00000000,0.00000000,0,0,-255,0,-255,0,0,0,0,27.7,12.75,3.53175,9.21825
573,95,0,3.12546,32.5769,0,233,0,0.00000000,0.00000000,0,0,-255,0,-255,0,0,0,0,26.6,12.75,3.3915,9.3585
574,92,0,3.13288,32.4914,0,238,0,0.00000000,0.00000000,0,0,-255,0,-255,0,0,0,0,26.6,12.75,3.3915,9.3585
575,93,0,3.14192,32.5805,0,279,0,0.00000000,0.00000000,0,0,-255,0,-255,0,0,0,0,25.9,12.75,3.30225,9.44775
576,92,0,3.15141,32.6805,0,280,0,0.00000000,0.00000000,0,0,-255,0,-255,0,0,0,0,25.9,12.75,3.30225,9.44775
577,93,0,3.16091,32.7446,0,269,0,0.00000000,0.00000000,0,0,-255,0,-255,0,0,0,0,25.8,12.76,3.29208,9.46792
578,94,0,3.17014,32.7967,0,284,0,0.00000000,0.00000000,0,0,-255,0,-255,0,0,0,0,25.8,12.76,3.29208,9.46792
579,92,0,3.1794,32.8396,0,279,0,0.00000000,0.00000000,0,0,-255,0,-255,0,0,0,0,25.7,12.75,3.27675,9.47325
580,94,0,3.18865,32.9077,0,280,0,0.00000000,0.00000000,0,0,-255,0,-255,0,0,0,0,25.7,12.75,3.27675,9.47325
581,91,0,3.19797,32.9575,0,256,0,0.00000000,0.00000000,0,0,-255,0,-255,0,0,0,0,25.9,12.75,3.30225,9.44775
582,93,0,3.20734,32.9445,0,286,0,0.00000000,0.00000000,0,0,-255,0,-255,0,0,0,0,25.9,12.75,3.30225,9.44775
583,92,0,3.21659,33.0351,0,291,0,0.00000000,0.00000000,0,0,-255,0,-255,0,0,0,0,26.9,12.75,3.42975,9.32025
584,94,0,3.22599,33.1069,0,278,0,0.00000000,0.00000000,0,0,-255,0,-255,0,0,0,0,26.9,12.75,3.42975,9.32025
585,93,0,3.23358,33.0706,0,252,0,0.00000000,0.00000000,0,0,-255,0,-255,0,0,0,0,27,12.74,3.4398,9.3002
586,92,0,3.24304,33.0562,0,270,0,0.00000000,0.00000000,0,0,-255,0,-255,0,0,0,0,27,12.74,3.4398,9.3002
587,91,0,3.25262,33.0548,0,269,0,0.00000000,0.00000000,0,0,-255,0,-255,0,0,0,0,26.8,12.74,3.41432,9.32568
588,91,0,3.26204,33.0802,0,281,0,0.00000000,0.00000000,0,0,-255,0,-255,0,0,0,0,26.8,12.74,3.41432,9.32568
589,92,0,3.27144,33.1639,0,284,0,0.00000000,0.00000000,0,0,-255,0,-255,0,0,0,0,26.9,12.74,3.42706,9.31294
590,93,0,3.28132,33.1836,0,273,0,0.00000000,0.00000000,0,0,-255,0,-255,0,0,0,0,26.9,12.74,3.42706,9.31294
591,92,0,3.29083,33.2199,0,297,0,0.00000000,0.00000000,0,0,-255,0,-255,0,0,0,0,27.1,12.74,3.45254,9.28746
592,93,0,3.29842,33.336,0,316,0,0.00000000,0.00000000,0,0,-255,0,-255,0,0,0,0,27.1,12.74,3.45254,9.28746
593,94,0,3.30829,33.3173,0,268,0,0.00000000,0.00000000,0,0,-255,0,-255,0,0,0,0,26.4,12.74,3.36336,9.37664
594,92,0,3.31815,33.2993,0,271,0,0.00000000,0.00000000,0,0,-255,0,-255,0,0,0,0,26.4,12.74,3.36336,9.37664
595,92,0,3.32756,33.3192,0,283,0,0.00000000,0.00000000,0,0,-255,0,-255,0,0,0,0,25.8,12.74,3.28692,9.45308
596,92,0,3.33696,33.2827,0,262,0,0.00000000,0.00000000,0,0,-255,0,-255,0,0,0,0,25.8,12.74,3.28692,9.45308
597,92,0,3.34647,33.3301,0,287,0,0.00000000,0.00000000,0,0,-255,0,-255,0,0,0,0,25.4,12.74,3.23596,9.50404
598,92,0,3.35584,33.3479,0,273,0,0.00000000,0.00000000,0,0,-255,0,-255,0,0,0,0,25.4,12.74,3.23596,9.50404
599,94,0,3.36531,33.3246,0,288,0,0.00000000,0.00000000,0,0,-255,0,-255,0,0,0,0,25.4,12.74,3.23596,9.50404
600,93,0,3.37468,33.3709,0,265,0,0.00000000,0.00000000,0,0,-255,0,-255,0,0,0,0,25.4,12.74,3.23596,9.50404
601,93,0,3.38221,33.3919,0,310,0,0.00000000,0.00000000,0,0,-255,0,-255,0,0,0,0,25.5,12.74,3.2487,9.4913
602,94,0,3.39175,33.6302,0,330,0,0.00000000,0.00000000,0,0,-255,0,-255,0,0,0,0,25.5,12.74,3.2487,9.4913
603,94,0,3.40148,33.6955,0,294,0,0.00000000,0.00000000,0,0,-255,0,-255,0,0,0,0,26.1,12.75,3.32775,9.42225
604,93,0,3.4115,33.6862,0,265,0,0.00000000,0.00000000,0,0,-255,0,-255,0,0,0,0,26.1,12.75,3.32775,9.42225
605,94,0,3.42161,33.7132,0,335,0,0.00000000,0.00000000,0,0,-255,0,-255,0,0,0,0,26.4,12.74,3.36336,9.37664
606,94,0,3.42957,33.7481,0,271,0,0.00000000,0.00000000,0,0,-255,0,-255,0,0,0,0,26.4,12.74,3.36336,9.37664
607,94,0,3.43908,33.728,0,291,0,0.00000000,0.00000000,0,0,-255,0,-255,0,0,0,0,26.9,12.74,3.42706,9.31294
608,93,0,3.44874,33.7509,0,288,0,0.00000000,0.00000000,0,0,-255,0,-255,0,0,0,0,26.9,12.74,3.42706,9.31294
609,93,0,3.45861,33.7379,0,281,0,0.00000000,0.00000000,0,0,-255,0,-255,0,0,0,0,26.9,12.74,3.42706,9.31294
610,93,0,3.46807,33.7823,0,294,0,0.00000000,0.00000000,0,0,-255,0,-255,0,0,0,0,27.5,12.74,3.5035,9.2365
611,92,0,3.47766,33.818,0,295,0,0.00000000,0.00000000,0,0,-255,0,-255,0,0,0,0,27.2,12.74,3.46528,9.27472
612,94,0,3.48718,33.8595,0,299,0,0.00000000,0.00000000,0,0,-255,0,-255,0,0,0,0,27.2,12.74,3.46528,9.27472
613,93,0,3.49504,33.9201,0,309,0,0.00000000,0.00000000,0,0,-255,0,-255,0,0,0,0,26.3,12.74,3.35062,9.38938
614,94,0,3.50493,34.0144,0,310,0,0.00000000,0.00000000,0,0,-255,0,-255,0,0,0,0,26.3,12.74,3.35062,9.38938
615,93,0,3.5151,34.0276,0,314,0,0.00000000,0.00000000,0,0,-255,0,-255,0,0,0,0,25.9,12.74,3.29966,9.44034
616,93,0,3.52482,34.0332,0,285,0,0.00000000,0.00000000,0,0,-255,0,-255,0,0,0,0,25.9,12.74,3.29966,9.44034
617,93,0,3.53457,34.1284,0,284,0,0.00000000,0.00000000,0,0,-255,0,-255,0,0,0,0,25.9,12.74,3.29966,9.44034
618,92,0,3.54275,34.1151,0,293,0,0.00000000,0.00000000,0,0,-255,0,-255,0,0,0,0,25.9,12.74,3.29966,9.44034
619,94,0,3.55284,34.1618,0,295,0,0.00000000,0.00000000,0,0,-255,0,-255,0,0,0,0,25.3,12.75,3.22575,9.52425
620,92,0,3.56293,34.122,0,314,0,0.00000000,0.00000000,0,0,-255,0,-255,0,0,0,0,25.3,12.75,3.22575,9.52425
621,93,0,3.57106,34.1866,0,306,0,0.00000000,0.00000000,0,0,-255,0,-255,0,0,0,0,25,12.75,3.1875,9.5625
622,93,0,3.58095,34.2347,0,319,0,0.00000000,0.00000000,0,0,-255,0,-255,0,0,0,0,25,12.75,3.1875,9.5625
623,93,0,3.5908,34.293,0,301,0,0.00000000,0.00000000,0,0,-255,0,-255,0,0,0,0,25.8,12.75,3.2895,9.4605
624,94,0,3.60045,34.3183,0,311,0,0.00000000,0.00000000,0,0,-255,0,-255,0,0,0,0,25.8,12.75,3.2895,9.4605
625,94,0,3.61016,34.3457,0,305,0,0.00000000,0.00000000,0,0,-255,0,-255,0,0,0,0,26.4,12.75,3.366,9.384
626,95,0,3.61973,34.3993,0,316,0,0.00000000,0.00000000,0,0,-255,0,-255,0,0,0,0,26.4,12.75,3.366,9.384
627,94,0,3.6295,34.3313,0,289,0,0.00000000,0.00000000,0,0,-255,0,-255,0,0,0,0,26.2,12.75,3.3405,9.4095
628,94,0,3.6393,34.283,0,289,0,0.00000000,0.00000000,0,0,-255,0,-255,0,0,0,0,26.2,12.75,3.3405,9.4095
629,96,0,3.64925,34.3048,0,304,0,0.00000000,0.00000000,0,0,-255,0,-255,0,0,0,0,25.4,12.75,3.2385,9.5115
630,94,0,3.65713,34.2978,0,279,0,0.00000000,0.00000000,0,0,-255,0,-255,0,0,0,0,25.4,12.75,3.2385,9.5115
631,93,0,3.6671,34.2632,0,318,0,0.00000000,0.00000000,0,0,-255,0,-255,0,0,0,0,25.3,12.75,3.22575,9.52425
632,95,0,3.6771,34.4231,0,297,0,0.00000000,0.00000000,0,0,-255,0,-255,0,0,0,0,25.3,12.75,3.22575,9.52425
633,93,0,3.68699,34.4086,0,302,0,0.00000000,0.00000000,0,0,-255,0,-255,0,0,0,0,25.1,12.75,3.20025,9.54975
634,95,0,3.69676,34.6086,0,350,0,0.00000000,0.00000000,0,0,-255,0,-255,0,0,0,0,25.1,12.75,3.20025,9.54975
635,93,0,3.70653,34.6967,0,316,0,0.00000000,0.00000000,0,0,-255,0,-255,0,0,0,0,25,12.75,3.1875,9.5625
636,93,0,3.71623,34.7708,0,354,0,0.00000000,0.00000000,0,0,-255,0,-255,0,0,0,0,25,12.75,3.1875,9.5625
637,93,0,3.72642,34.8639,0,320,0,0.00000000,0.00000000,0,0,-255,0,-255,0,0,0,0,25,12.75,3.1875,9.5625
638,94,0,3.73629,34.982,0,339,0,0.00000000,0.00000000,0,0,-255,0,-255,0,0,0,0,25.9,12.75,3.30225,9.44775
639,94,0,3.74417,35.0504,0,314,0,0.00000000,0.00000000,0,0,-255,0,-255,0,0,0,0,25.9,12.75,3.30225,9.44775
640,94,0,3.75419,35.0498,0,324,0,0.00000000,0.00000000,0,0,-255,0,-255,0,0,0,0,25.9,12.75,3.30225,9.44775
641,93,0,3.76451,35.0788,0,334,0,0.00000000,0.00000000,0,0,-255,0,-255,0,0,0,0,26.1,12.75,3.32775,9.42225
642,94,0,3.77473,35.1457,0,331,0,0.00000000,0.00000000,0,0,-255,0,-255,0,0,0,0,26.3,12.75,3.35325,9.39675
643,95,0,3.78526,35.1952,0,330,0,0.00000000,0.00000000,0,0,-255,0,-255,0,0,0,0,26.3,12.75,3.35325,9.39675
644,96,0,3.7954,35.2629,0,338,0,0.00000000,0.00000000,0,0,-255,0,-255,0,0,0,0,26.4,12.75,3.366,9.384
645,96,0,3.80338,35.3124,0,325,0,0.00000000,0.00000000,0,0,-255,0,-255,0,0,0,0,26.4,12.75,3.366,9.384
646,95,0,3.81346,35.3495,0,335,0,0.00000000,0.00000000,0,0,-255,0,-255,0,0,0,0,26.4,12.75,3.366,9.384
647,96,0,3.82406,35.398,0,320,0,0.00000000,0.00000000,0,0,-255,0,-255,0,0,0,0,26.5,12.75,3.37875,9.37125
648,95,0,3.8346,35.3893,0,333,0,0.00000000,0.00000000,0,0,-255,0,-255,0,0,0,0,26.5,12.75,3.37875,9.37125
649,95,0,3.84257,35.4151,0,333,0,0.00000000,0.00000000,0,0,-255,0,-255,0,0,0,0,26.5,12.75,3.37875,9.37125
650,94,0,3.85274,35.4316,0,339,0,0.00000000,0.00000000,0,0,-255,0,-255,0,0,0,0,26.5,12.75,3.37875,9.37125
651,95,0,3.86269,35.5052,0,348,0,0.00000000,0.00000000,0,0,-255,0,-255,0,0,0,0,26.8,12.75,3.417,9.333
652,95,0,3.87269,35.5222,0,331,0,0.00000000,0.00000000,0,0,-255,0,-255,0,0,0,0,26.8,12.75,3.417,9.333
653,93,0,3.88272,35.5349,0,335,0,0.00000000,0.00000000,0,0,-255,0,-255,0,0,0,0,26.5,12.75,3.37875,9.37125
654,94,0,3.89269,35.5546,0,339,0,0.00000000,0.00000000,0,0,-255,0,-255,0,0,0,0,26.3,12.76,3.35588,9.40412
655,93,0,3.90317,35.5442,0,325,0,0.00000000,0.00000000,0,0,-255,0,-255,0,0,0,0,26.3,12.76,3.35588,9.40412
656,93,0,3.9135,35.5435,0,334,0,0.00000000,0.00000000,0,0,-255,0,-255,0,0,0,0,26.1,12.76,3.33036,9.42964
657,95,0,3.92349,35.5624,0,328,0,0.00000000,0.00000000,0,0,-255,0,-255,0,0,0,0,26.1,12.76,3.33036,9.42964
658,94,0,3.93353,35.5826,0,341,0,0.00000000,0.00000000,0,0,-255,0,-255,0,0,0,0,25.8,12.76,3.29208,9.46792
659,96,0,3.94352,35.5676,0,320,0,0.00000000,0.00000000,0,0,-255,0,-255,0,0,0,0,25.8,12.76,3.29208,9.46792
660,94,0,3.95167,35.5673,0,336,0,0.00000000,0.00000000,0,0,-255,0,-255,0,0,0,0,25.8,12.76,3.29208,9.46792
661,99,0,3.96224,35.8448,0,386,0,0.00000000,0.00000000,0,0,-255,0,-255,0,0,0,0,26,12.76,3.3176,9.4424
662,98,0,3.97255,35.785,0,314,0,0.00000000,0.00000000,0,0,-255,0,-255,0,0,0,0,26.2,12.76,3.34312,9.41688
664,96,0,3.98254,35.8513,0,387,0,0.00000000,0.00000000,0,0,-255,0,-255,0,0,0,0,26.2,12.76,3.34312,9.41688
666,95,0,4.00308,35.9432,0,361,0,0.00000000,0.00000000,0,0,-255,0,-255,0,0,0,0,26.4,12.76,3.36864,9.39136
667,96,0,4.01357,36.0274,0,357,0,0.00000000,0.00000000,0,0,-255,0,-255,0,0,0,0,26.3,12.75,3.35325,9.39675
668,94,0,4.02231,36.0568,0,346,0,0.00000000,0.00000000,0,0,-255,0,-255,0,0,0,0,26.3,12.75,3.35325,9.39675
669,94,0,4.03266,36.0831,0,352,0,0.00000000,0.00000000,0,0,-255,0,-255,0,0,0,0,26.4,12.75,3.366,9.384
670,95,0,4.04328,36.1757,0,361,0,0.00000000,0.00000000,0,0,-255,0,-255,0,0,0,0,26.4,12.75,3.366,9.384
671,94,0,4.05381,36.2198,0,354,0,0.00000000,0.00000000,0,0,-255,0,-255,0,0,0,0,26.4,12.75,3.366,9.384
672,94,0,4.0642,36.2595,0,359,0,0.00000000,0.00000000,0,0,-255,0,-255,0,0,0,0,26.1,12.75,3.32775,9.42225
673,94,0,4.07445,36.3039,0,372,0,0.00000000,0.00000000,0,0,-255,0,-255,0,0,0,0,25.5,12.75,3.25125,9.49875
674,96,0,4.08475,36.4,0,372,0,0.00000000,0.00000000,0,0,-255,0,-255,0,0,0,0,25.5,12.75,3.25125,9.49875
675,96,0,4.09308,36.4609,0,371,0,0.00000000,0.00000000,0,0,-255,0,-255,0,0,0,0,25.5,12.75,3.25125,9.49875
676,96,0,4.10374,36.5264,0,377,0,0.00000000,0.00000000,0,0,-255,0,-255,0,0,0,0,24.8,12.75,3.162,9.588
677,96,0,4.11465,36.4849,0,346,0,0.00000000,0.00000000,0,0,-255,0,-255,0,0,0,0,24.8,12.75,3.162,9.588
678,94,0,4.12558,36.4377,0,346,0,0.00000000,0.00000000,0,0,-255,0,-255,0,0,0,0,24.5,12.75,3.12375,9.62625
679,95,0,4.13395,36.4159,0,355,0,0.00000000,0.00000000,0,0,-255,0,-255,0,0,0,0,23.6,12.75,3.009,9.741
680,95,0,4.14473,36.4301,0,356,0,0.00000000,0.00000000,0,0,-255,0,-255,0,0,0,0,23.6,12.75,3.009,9.741
681,96,0,4.15527,36.5255,0,377,0,0.00000000,0.00000000,0,0,-255,0,-255,0,0,0,0,23.6,12.75,3.009,9.741
682,96,0,4.16598,36.5802,0,349,0,0.00000000,0.00000000,0,0,-255,0,-255,0,0,0,0,23.1,12.75,2.94525,9.80475
683,96,0,4.17645,36.4049,0,304,0,0.00000000,0.00000000,0,0,-255,0,-255,0,0,0,0,23,12.75,2.9325,9.8175
684,94,0,4.18669,36.3317,0,397,0,0.00000000,0.00000000,0,0,-255,0,-255,0,0,0,0,23,12.75,2.9325,9.8175
685,99,0,4.19509,36.527,0,349,0,0.00000000,0.00000000,0,0,-255,0,-255,0,0,0,0,23.3,12.76,2.97308,9.78692
686,97,0,4.20537,36.3895,0,300,0,0.00000000,0.00000000,0,0,-255,0,-255,0,0,0,0,23.3,12.76,2.97308,9.78692
687,97,0,4.21595,36.3613,0,373,0,0.00000000,0.00000000,0,0,-255,0,-255,0,0,0,0,23.3,12.76,2.97308,9.78692
688,97,0,4.22632,36.4475,0,377,0,0.00000000,0.00000000,0,0,-255,0,-255,0,0,0,0,23.5,12.76,2.9986,9.7614
689,98,0,4.23676,36.5332,0,370,0,0.00000000,0.00000000,0,0,-255,0,-255,0,0,0,0,23.6,12.76,3.01136,9.74864
690,97,0,4.24741,36.5174,0,383,0,0.00000000,0.00000000,0,0,-255,0,-255,0,0,0,0,23.6,12.76,3.01136,9.74864
691,96,0,4.25602,36.6023,0,352,0,0.00000000,0.00000000,0,0,-255,0,-255,0,0,0,0,23.5,12.76,2.9986,9.7614
692,96,0,4.26675,36.6387,0,372,0,0.00000000,0.00000000,0,0,-255,0,-255,0,0,0,0,23.5,12.76,2.9986,9.7614
693,96,0,4.27771,36.7461,0,398,0,0.00000000,0.00000000,0,0,-255,0,-255,0,0,0,0,23.6,12.76,3.01136,9.74864
694,97,0,4.28807,36.8909,0,379,0,0.00000000,0.00000000,0,0,-255,0,-255,0,0,0,0,23.6,12.76,3.01136,9.74864
695,97,0,4.2985,36.9404,0,374,0,0.00000000,0.00000000,0,0,-255,0,-255,0,0,0,0,23.6,12.76,3.01136,9.74864
696,96,0,4.30887,36.9825,0,404,0,0.00000000,0.00000000,0,0,-255,0,-255,0,0,0,0,23.3,12.77,2.97541,9.79459
697,96,0,4.31938,37.0875,0,370,0,0.00000000,0.00000000,0,0,-255,0,-255,0,0,0,0,23.3,12.77,2.97541,9.79459
698,96,0,4.32787,37.1235,0,388,0,0.00000000,0.00000000,0,0,-255,0,-255,0,0,0,0,23,12.76,2.9348,9.8252
699,95,0,4.3384,37.1821,0,394,0,0.00000000,0.00000000,0,0,-255,0,-255,0,0,0,0,22.9,12.75,2.91975,9.83025
700,95,0,4.34885,37.255,0,388,0,0.00000000,0.00000000,0,0,-255,0,-255,0,0,0,0,22.9,12.75,2.91975,9.83025
701,95,0,4.35952,37.3456,0,368,0,0.00000000,0.00000000,0,0,-255,0,-255,0,0,0,0,23,12.75,2.9325,9.8175
702,94,0,4.37043,37.3083,0,386,0,0.00000000,0.00000000,0,0,-255,0,-255,0,0,0,0,23,12.75,2.9325,9.8175
703,95,0,4.38092,37.3774,0,384,0,0.00000000,0.00000000,0,0,-255,0,-255,0,0,0,0,22.9,12.75,2.91975,9.83025
704,95,0,4.39143,37.4501,0,402,0,0.00000000,0.00000000,0,0,-255,0,-255,0,0,0,0,22.9,12.75,2.91975,9.83025
705,95,0,4.40206,37.502,0,393,0,0.00000000,0.00000000,0,0,-255,0,-255,0,0,0,0,22.7,12.75,2.89425,9.85575
706,95,0,4.41265,37.5422,0,393,0,0.00000000,0.00000000,0,0,-255,0,-255,0,0,0,0,22.7,12.75,2.89425,9.85575
707,96,0,4.42324,37.5953,0,412,0,0.00000000,0.00000000,0,0,-255,0,-255,0,0,0,0,22.6,12.75,2.8815,9.8685
708,96,0,4.43385,37.5999,0,349,0,0.00000000,0.00000000,0,0,-255,0,-255,0,0,0,0,22.6,12.75,2.8815,9.8685
709,94,0,4.44233,37.5354,0,394,0,0.00000000,0.00000000,0,0,-255,0,-255,0,0,0,0,22.5,12.76,2.871,9.889
710,95,0,4.45299,37.547,0,410,0,0.00000000,0.00000000,0,0,-255,0,-255,0,0,0,0,22.5,12.76,2.871,9.889
711,96,0,4.46386,37.6377,0,395,0,0.00000000,0.00000000,0,0,-255,0,-255,0,0,0,0,22.2,12.76,2.83272,9.92728
712,97,0,4.47447,37.6495,0,394,0,0.00000000,0.00000000,0,0,-255,0,-255,0,0,0,0,22.2,12.76,2.83272,9.92728
713,96,0,4.48525,37.6374,0,417,0,0.00000000,0.00000000,0,0,-255,0,-255,0,0,0,0,22.2,12.76,2.83272,9.92728
714,97,0,4.49581,37.7215,0,385,0,0.00000000,0.00000000,0,0,-255,0,-255,0,0,0,0,21.8,12.76,2.78168,9.97832
715,98,0,4.50675,37.6654,0,397,0,0.00000000,0.00000000,0,0,-255,0,-255,0,0,0,0,21.9,12.76,2.79444,9.96556
716,96,0,4.51741,37.7044,0,397,0,0.00000000,0.00000000,0,0,-255,0,-255,0,0,0,0,21.9,12.76,2.79444,9.96556
717,96,0,4.52836,37.666,0,376,0,0.00000000,0.00000000,0,0,-255,0,-255,0,0,0,0,22.1,12.76,2.81996,9.94004
718,97,0,4.53923,37.705,0,391,0,0.00000000,0.00000000,0,0,-255,0,-255,0,0,0,0,22.1,12.76,2.81996,9.94004
719,96,0,4.54978,37.6899,0,386,0,0.00000000,0.00000000,0,0,-255,0,-255,0,0,0,0,22.5,12.77,2.87325,9.89675
720,96,0,4.55853,37.6824,0,387,0,0.00000000,0.00000000,0,0,-255,0,-255,0,0,0,0,22.5,12.77,2.87325,9.89675
721,97,0,4.56923,37.7318,0,405,0,0.00000000,0.00000000,0,0,-255,0,-255,0,0,0,0,22.7,12.77,2.89879,9.87121
722,97,0,4.57987,37.7455,0,392,0,0.00000000,0.00000000,0,0,-255,0,-255,0,0,0,0,22.7,12.77,2.89879,9.87121
723,97,0,4.59053,37.6685,0,353,0,0.00000000,0.00000000,0,0,-255,0,-255,0,0,0,0,22.7,12.77,2.89879,9.87121
724,96,0,4.60112,37.6467,0,463,0,0.00000000,0.00000000,0,0,-255,0,-255,0,0,0,0,22.8,12.77,2.91156,9.85844
725,97,0,4.61174,37.76,0,392,0,0.00000000,0.00000000,0,0,-255,0,-255,0,0,0,0,22.8,12.77,2.91156,9.85844
726,94,0,4.62234,37.7817,0,399,0,0.00000000,0.00000000,0,0,-255,0,-255,0,0,0,0,22.7,12.77,2.89879,9.87121
727,96,0,4.63307,37.8977,0,417,0,0.00000000,0.00000000,0,0,-255,0,-255,0,0,0,0,22.4,12.76,2.85824,9.90176
728,96,0,4.64373,37.9701,0,410,0,0.00000000,0.00000000,0,0,-255,0,-255,0,0,0,0,22.4,12.76,2.85824,9.90176
729,97,0,4.65463,37.9875,0,398,0,0.00000000,0.00000000,0,0,-255,0,-255,0,0,0,0,22.4,12.76,2.85824,9.90176
730,95,0,4.6655,38.0925,0,401,0,0.00000000,0.00000000,0,0,-255,0,-255,0,0,0,0,21.9,12.76,2.79444,9.96556
731,96,0,4.67443,38.1271,0,424,0,0.00000000,0.00000000,0,0,-255,0,-255,0,0,0,0,21.8,12.76,2.78168,9.97832
732,96,0,4.68569,38.1807,0,410,0,0.00000000,0.00000000,0,0,-255,0,-255,0,0,0,0,21.8,12.76,2.78168,9.97832
733,96,0,4.69658,38.2327,0,431,0,0.00000000,0.00000000,0,0,-255,0,-255,0,0,0,0,21.8,12.76,2.78168,9.97832
734,96,0,4.70771,38.3108,0,415,0,0.00000000,0.00000000,0,0,-255,0,-255,0,0,0,0,21.8,12.76,2.78168,9.97832
735,96,0,4.71902,38.3564,0,405,0,0.00000000,0.00000000,0,0,-255,0,-255,0,0,0,0,21.8,12.77,2.78386,9.98614
736,95,0,4.728,38.3167,0,391,0,0.00000000,0.00000000,0,0,-255,0,-255,0,0,0,0,21.8,12.77,2.78386,9.98614
737,95,0,4.73894,38.3447,0,430,0,0.00000000,0.00000000,0,0,-255,0,-255,0,0,0,0,21.8,12.77,2.78386,9.98614
738,95,0,4.74986,38.4161,0,402,0,0.00000000,0.00000000,0,0,-255,0,-255,0,0,0,0,21.8,12.77,2.78386,9.98614
739,95,0,4.76074,38.3932,0,421,0,0.00000000,0.00000000,0,0,-255,0,-255,0,0,0,0,21.8,12.77,2.78386,9.98614
740,96,0,4.77165,38.439,0,417,0,0.00000000,0.00000000,0,0,-255,0,-255,0,0,0,0,21.8,12.78,2.78604,9.99396
741,95,0,4.78258,38.4284,0,399,0,0.00000000,0.00000000,0,0,-255,0,-255,0,0,0,0,21.3,12.78,2.72214,10.0579
742,96,0,4.79345,38.474,0,443,0,0.00000000,0.00000000,0,0,-255,0,-255,0,0,0,0,21.3,12.78,2.72214,10.0579
743,95,0,4.80434,38.4973,0,400,0,0.00000000,0.00000000,0,0,-255,0,-255,0,0,0,0,20.7,12.78,2.64546,10.1345
744,95,0,4.81525,38.4536,0,413,0,0.00000000,0.00000000,0,0,-255,0,-255,0,0,0,0,20.7,12.78,2.64546,10.1345
745,96,0,4.82627,38.4554,0,411,0,0.00000000,0.00000000,0,0,-255,0,-255,0,0,0,0,20.7,12.78,2.64546,10.1345
746,96,0,4.83721,38.4883,0,421,0,0.00000000,0.00000000,0,0,-255,0,-255,0,0,0,0,20.8,12.78,2.65824,10.1218
747,95,0,4.84809,38.5048,0,396,0,0.00000000,0.00000000,0,0,-255,0,-255,0,0,0,0,20.8,12.78,2.65824,10.1218
748,94,0,4.85895,38.4272,0,392,0,0.00000000,0.00000000,0,0,-255,0,-255,0,0,0,0,20.8,12.78,2.65824,10.1218
749,94,0,4.86749,38.5058,0,453,0,0.00000000,0.00000000,0,0,-255,0,-255,0,0,0,0,19.9,12.78,2.54322,10.2368
750,95,0,4.87889,38.4618,0,354,0,0.00000000,0.00000000,0,0,-255,0,-255,0,0,0,0,19.9,12.78,2.54322,10.2368
751,95,0,4.88972,38.5025,0,439,0,0.00000000,0.00000000,0,0,-255,0,-255,0,0,0,0,20.2,12.78,2.58156,10.1984
752,93,0,4.90108,38.4746,0,468,0,0.00000000,0.00000000,0,0,-255,0,-255,0,0,0,0,20.2,12.78,2.58156,10.1984
753,96,0,4.91227,38.7566,0,491,0,0.00000000,0.00000000,0,0,-255,0,-255,0,0,0,0,20.5,12.78,2.6199,10.1601
754,95,0,4.92329,38.7576,0,396,0,0.00000000,0.00000000,0,0,-255,0,-255,0,0,0,0,20.5,12.78,2.6199,10.1601
755,93,0,4.93216,38.7364,0,443,0,0.00000000,0.00000000,0,0,-255,0,-255,0,0,0,0,20.2,12.78,2.58156,10.1984
756,94,0,4.94363,38.8096,0,422,0,0.00000000,0.00000000,0,0,-255,0,-255,0,0,0,0,20.2,12.78,2.58156,10.1984
757,94,0,4.95485,38.8128,0,425,0,0.00000000,0.00000000,0,0,-255,0,-255,0,0,0,0,20,12.77,2.554,10.216
758,93,0,4.96576,38.8561,0,449,0,0.00000000,0.00000000,0,0,-255,0,-255,0,0,0,0,20,12.77,2.554,10.216
759,94,0,4.97673,38.892,0,416,0,0.00000000,0.00000000,0,0,-255,0,-255,0,0,0,0,20,12.77,2.554,10.216
760,94,0,4.98764,38.938,0,450,0,0.00000000,0.00000000,0,0,-255,0,-255,0,0,0,0,20.5,12.77,2.61785,10.1521
761,94,0,4.99869,38.9839,0,427,0,0.00000000,0.00000000,0,0,-255,0,-255,0,0,0,0,19.9,12.76,2.53924,10.2208
762,94,0,5.00965,38.9942,0,455,0,0.00000000,0.00000000,0,0,-255,0,-255,0,0,0,0,19.9,12.76,2.53924,10.2208
763,94,0,5.01881,39.0877,0,455,0,0.00000000,0.00000000,0,0,-255,0,-255,0,0,0,0,20,12.77,2.554,10.216
764,96,0,5.03017,39.0938,0,424,0,0.00000000,0.00000000,0,0,-255,0,-255,0,0,0,0,20,12.77,2.554,10.216
765,95,0,5.04152,39.1633,0,463,0,0.00000000,0.00000000,0,0,-255,0,-255,0,0,0,0,20,12.77,2.554,10.216
766,94,0,5.05288,39.1689,0,423,0,0.00000000,0.00000000,0,0,-255,0,-255,0,0,0,0,19.5,12.77,2.49015,10.2798
767,96,0,5.06381,39.1319,0,423,0,0.00000000,0.00000000,0,0,-255,0,-255,0,0,0,0,19.5,12.77,2.49015,10.2798
768,93,0,5.0749,39.1288,0,444,0,0.00000000,0.00000000,0,0,-255,0,-255,0,0,0,0,19.5,12.77,2.49015,10.2798
769,95,0,5.08612,39.2048,0,463,0,0.00000000,0.00000000,0,0,-255,0,-255,0,0,0,0,19.5,12.77,2.49015,10.2798
770,95,0,5.09718,39.0647,0,421,0,0.00000000,0.00000000,0,0,-255,0,-255,0,0,0,0,18.6,12.75,2.3715,10.3785
771,93,0,5.10621,39.0987,0,443,0,0.00000000,0.00000000,0,0,-255,0,-255,0,0,0,0,18.6,12.75,2.3715,10.3785
772,94,0,5.11744,39.1312,0,438,0,0.00000000,0.00000000,0,0,-255,0,-255,0,0,0,0,18.4,12.75,2.346,10.404
773,93,0,5.12854,39.1316,0,436,0,0.00000000,0.00000000,0,0,-255,0,-255,0,0,0,0,18.2,12.75,2.3205,10.4295
774,94,0,5.13962,39.1854,0,441,0,0.00000000,0.00000000,0,0,-255,0,-255,0,0,0,0,18.2,12.75,2.3205,10.4295
775,94,0,5.15077,39.1694,0,396,0,0.00000000,0.00000000,0,0,-255,0,-255,0,0,0,0,18.1,12.75,2.30775,10.4422
776,94,0,5.16204,39.0433,0,444,0,0.00000000,0.00000000,0,0,-255,0,-255,0,0,0,0,18.1,12.75,2.30775,10.4422
777,95,0,5.17302,39.052,0,402,0,0.00000000,0.00000000,0,0,-255,0,-255,0,0,0,0,18.1,12.75,2.30775,10.4422
778,94,0,5.18405,39.0128,0,457,0,0.00000000,0.00000000,0,0,-255,0,-255,0,0,0,0,17.9,12.75,2.28225,10.4678
779,93,0,5.19288,38.9853,0,415,0,0.00000000,0.00000000,0,0,-255,0,-255,0,0,0,0,18.2,12.77,2.32414,10.4459
780,95,0,5.20452,39.1676,0,493,0,0.00000000,0.00000000,0,0,-255,0,-255,0,0,0,0,18.2,12.77,2.32414,10.4459
781,96,0,5.2161,39.1009,0,373,0,0.00000000,0.00000000,0,0,-255,0,-255,0,0,0,0,17.7,12.75,2.25675,10.4932
782,98,0,5.22725,39.3057,0,503,0,0.00000000,0.00000000,0,0,-255,0,-255,0,0,0,0,17.7,12.75,2.25675,10.4932
783,96,0,5.23862,39.4563,0,413,0,0.00000000,0.00000000,0,0,-255,0,-255,0,0,0,0,17,12.72,2.1624,10.5576
784,95,0,5.24787,39.3882,0,477,0,0.00000000,0.00000000,0,0,-255,0,-255,0,0,0,0,17,12.72,2.1624,10.5576
785,94,0,5.25902,39.3456,0,383,0,0.00000000,0.00000000,0,0,-255,0,-255,0,0,0,0,16.7,12.72,2.12424,10.5958
786,95,0,5.27009,39.533,0,465,0,0.00000000,0.00000000,0,0,-255,0,-255,0,0,0,0,16.7,12.72,2.12424,10.5958
787,93,0,5.28139,39.4863,0,464,0,0.00000000,0.00000000,0,0,-255,0,-255,0,0,0,0,16.2,12.72,2.06064,10.6594
788,93,0,5.29262,39.5715,0,464,0,0.00000000,0.00000000,0,0,-255,0,-255,0,0,0,0,16.2,12.72,2.06064,10.6594
789,92,0,5.30378,39.6224,0,452,0,0.00000000,0.00000000,0,0,-255,0,-255,0,0,0,0,15.9,12.72,2.02248,10.6975
790,92,0,5.31518,39.6955,0,477,0,0.00000000,0.00000000,0,0,-255,0,-255,0,0,0,0,15.9,12.72,2.02248,10.6975
791,95,0,5.32627,39.8487,0,451,0,0.00000000,0.00000000,0,0,-255,0,-255,0,0,0,0,15.8,12.74,2.01292,10.7271
792,94,0,5.33548,39.8247,0,444,0,0.00000000,0.00000000,0,0,-255,0,-255,0,0,0,0,15.8,12.74,2.01292,10.7271
793,95,0,5.34722,39.839,0,458,0,0.00000000,0.00000000,0,0,-255,0,-255,0,0,0,0,16,12.77,2.0432,10.7268
794,93,0,5.35842,39.9235,0,514,0,0.00000000,0.00000000,0,0,-255,0,-255,0,0,0,0,16,12.77,2.0432,10.7268
795,92,0,5.37011,39.9566,0,409,0,0.00000000,0.00000000,0,0,-255,0,-255,0,0,0,0,16.3,12.78,2.08314,10.6969
796,91,0,5.38151,39.983,0,470,0,0.00000000,0.00000000,0,0,-255,0,-255,0,0,0,0,16.3,12.78,2.08314,10.6969
797,93,0,5.39308,39.9986,0,459,0,0.00000000,0.00000000,0,0,-255,0,-255,0,0,0,0,16.2,12.79,2.07198,10.718
798,92,0,5.40249,39.9915,0,457,0,0.00000000,0.00000000,0,0,-255,0,-255,0,0,0,0,16.2,12.79,2.07198,10.718
799,92,0,5.4139,40.0349,0,485,0,0.00000000,0.00000000,0,0,-255,0,-255,0,0,0,0,16.1,12.79,2.05919,10.7308
800,93,0,5.42512,40.0646,0,465,0,0.00000000,0.00000000,0,0,-255,0,-255,0,0,0,0,16.1,12.79,2.05919,10.7308
801,93,0,5.43646,40.0963,0,473,0,0.00000000,0.00000000,0,0,-255,0,-255,0,0,0,0,16.4,12.8,2.0992,10.7008
802,94,0,5.44778,40.1367,0,477,0,0.00000000,0.00000000,0,0,-255,0,-255,0,0,0,0,16.4,12.8,2.0992,10.7008
803,92,0,5.45925,40.1241,0,445,0,0.00000000,0.00000000,0,0,-255,0,-255,0,0,0,0,16.3,12.8,2.0864,10.7136
804,90,0,5.47057,40.1017,0,431,0,0.00000000,0.00000000,0,0,-255,0,-255,0,0,0,0,16.3,12.8,2.0864,10.7136
805,90,0,5.48184,40.0327,0,457,0,0.00000000,0.00000000,0,0,-255,0,-255,0,0,0,0,15.6,12.78,1.99368,10.7863
806,91,0,5.49351,40.0939,0,483,0,0.00000000,0.00000000,0,0,-255,0,-255,0,0,0,0,15.6,12.78,1.99368,10.7863
807,92,0,5.50481,40.1663,0,480,0,0.00000000,0.00000000,0,0,-255,0,-255,0,0,0,0,15.5,12.79,1.98245,10.8075
808,91,0,5.51619,40.1851,0,459,0,0.00000000,0.00000000,0,0,-255,0,-255,0,0,0,0,15.5,12.79,1.98245,10.8075
809,90,0,5.52553,40.1806,0,466,0,0.00000000,0.00000000,0,0,-255,0,-255,0,0,0,0,15.5,12.79,1.98245,10.8075
810,92,0,5.53678,40.1757,0,454,0,0.00000000,0.00000000,0,0,-255,0,-255,0,0,0,0,15.4,12.79,1.96966,10.8203
811,93,0,5.54854,40.1542,0,506,0,0.00000000,0.00000000,0,0,-255,0,-255,0,0,0,0,14.6,12.77,1.86442,10.9056
812,94,0,5.55983,40.2978,0,491,0,0.00000000,0.00000000,0,0,-255,0,-255,0,0,0,0,14.6,12.77,1.86442,10.9056
813,91,0,5.57132,40.438,0,510,0,0.00000000,0.00000000,0,0,-255,0,-255,0,0,0,0,13.1,12.71,1.66501,11.045
814,92,0,5.58278,40.5838,0,515,0,0.00000000,0.00000000,0,0,-255,0,-255,0,0,0,0,13.1,12.71,1.66501,11.045
815,92,0,5.59452,40.5816,0,462,0,0.00000000,0.00000000,0,0,-255,0,-255,0,0,0,0,12.3,12.67,1.55841,11.1116
816,91,0,5.60625,40.7074,0,528,0,0.00000000,0.00000000,0,0,-255,0,-255,0,0,0,0,12.3,12.67,1.55841,11.1116
817,91,0,5.61562,40.7552,0,495,0,0.00000000,0.00000000,0,0,-255,0,-255,0,0,0,0,12.2,12.66,1.54452,11.1155
818,92,0,5.62731,40.7783,0,479,0,0.00000000,0.00000000,0,0,-255,0,-255,0,0,0,0,12.2,12.66,1.54452,11.1155
819,90,0,5.63891,40.6759,0,483,0,0.00000000,0.00000000,0,0,-255,0,-255,0,0,0,0,12.2,12.66,1.54452,11.1155
820,90,0,5.65098,40.746,0,514,0,0.00000000,0.00000000,0,0,-255,0,-255,0,0,0,0,12,12.65,1.518,11.132
821,91,0,5.66249,40.8161,0,497,0,0.00000000,0.00000000,0,0,-255,0,-255,0,0,0,0,11.8,12.65,1.4927,11.1573
822,88,0,5.67406,40.7821,0,473,0,0.00000000,0.00000000,0,0,-255,0,-255,0,0,0,0,11.8,12.65,1.4927,11.1573
823,87,0,5.68557,40.85,0,514,0,0.00000000,0.00000000,0,0,-255,0,-255,0,0,0,0,11.8,12.65,1.4927,11.1573
824,86,0,5.69728,40.8624,0,478,0,0.00000000,0.00000000,0,0,-255,0,-255,0,0,0,0,13.6,12.72,1.72992,10.9901
825,86,0,5.70875,40.9544,0,525,0,0.00000000,0.00000000,0,0,-255,0,-255,0,0,0,0,14.5,12.77,1.85165,10.9184
826,87,0,5.71794,41.0105,0,525,0,0.00000000,0.00000000,0,0,-255,0,-255,0,0,0,0,14.5,12.77,1.85165,10.9184
827,89,0,5.72974,41.1821,0,564,0,0.00000000,0.00000000,0,0,-255,0,-255,0,0,0,0,14.4,12.78,1.84032,10.9397
828,89,0,5.7417,41.0831,0,463,0,0.00000000,0.00000000,0,0,-255,0,-255,0,0,0,0,14.4,12.78,1.84032,10.9397
829,89,0,5.75341,40.9959,0,466,0,0.00000000,0.00000000,0,0,-255,0,-255,0,0,0,0,14.1,12.77,1.80057,10.9694
830,87,0,5.76504,40.8913,0,464,0,0.00000000,0.00000000,0,0,-255,0,-255,0,0,0,0,14.1,12.77,1.80057,10.9694
831,87,0,5.77709,40.9044,0,483,0,0.00000000,0.00000000,0,0,-255,0,-255,0,0,0,0,14.8,12.79,1.89292,10.8971
832,87,0,5.78649,40.8862,0,483,0,0.00000000,0.00000000,0,0,-255,0,-255,0,0,0,0,14.8,12.79,1.89292,10.8971
833,87,0,5.79871,40.9241,0,514,0,0.00000000,0.00000000,0,0,-255,0,-255,0,0,0,0,14.5,12.78,1.8531,10.9269
834,86,0,5.81059,40.9243,0,480,0,0.00000000,0.00000000,0,0,-255,0,-255,0,0,0,0,14.5,12.78,1.8531,10.9269
835,84,0,5.82222,40.8717,0,478,0,0.00000000,0.00000000,0,0,-255,0,-255,0,0,0,0,14.5,12.78,1.8531,10.9269
836,80,0,5.83372,40.7582,0,507,0,0.00000000,0.00000000,0,0,-255,0,-255,0,0,0,0,14.5,12.78,1.8531,10.9269
837,78,0,5.84523,40.8316,0,470,0,0.00000000,0.00000000,0,0,-255,0,-255,0,0,0,0,14.5,12.78,1.8531,10.9269
838,80,0,5.85675,40.8412,0,530,0,0.00000000,0.00000000,0,0,-255,0,-255,0,0,0,0,14.5,12.78,1.8531,10.9269
839,80,0,5.86823,40.9794,0,466,0,0.00000000,0.00000000,0,0,-255,0,-255,0,0,0,0,14.5,12.78,1.8531,10.9269
840,76,0,5.87763,40.856,0,431,0,0.00000000,0.00000000,0,0,-255,0,-255,0,0,0,0,14.6,12.8,1.8688,10.9312
841,73,0,5.88935,40.781,0,472,0,0.00000000,0.00000000,0,0,-255,0,-255,0,0,0,0,14.5,12.8,1.856,10.944
842,70,0,5.90097,40.7294,0,454,0,0.00000000,0.00000000,0,0,-255,0,-255,0,0,0,0,14.5,12.8,1.856,10.944
843,65,0,5.91242,40.5789,0,420,0,0.00000000,0.00000000,0,0,-255,0,-255,0,0,0,0,14.5,12.8,1.856,10.944
844,54,0,5.92375,40.3225,0,336,0,0.00000000,0.00000000,0,0,-255,0,-255,0,0,0,0,14.4,12.8,1.8432,10.9568
845,54,0,5.93527,39.7938,0,337,0,0.00000000,0.00000000,0,0,-255,0,-255,0,0,0,0,14.2,12.81,1.81902,10.991
846,0,0,5.94668,38.8698,0,0,0,0.00000000,0.00000000,0,0,-255,0,-255,0,0,0,0,14.2,12.81,1.81902,10.991
847,0,0,5.95768,37.0709,0,0,0,0.00000000,0.00000000,0,0,-255,0,-255,0,0,0,0,14.5,12.81,1.85745,10.9526
848,0,0,5.96792,35.4618,0,0,0,0.00000000,0.00000000,0,0,-255,0,-255,0,0,0,0,14.5,12.81,1.85745,10.9526
849,0,0,5.97632,34.1828,0,0,0,0.00000000,0.00000000,0,0,-255,0,-255,0,0,0,0,15.1,12.82,1.93582,10.8842
850,73,0,5.98626,32.7182,0,0,0,0.00000000,0.00000000,0,0,-255,0,-255,0,0,0,0,15.1,12.82,1.93582,10.8842
851,0,0,5.99572,31.3708,0,0,0,0.00000000,0.00000000,0,0,-255,0,-255,0,0,0,0,14.4,12.77,1.83888,10.9311
852,73,0,6.0046,30.1461,0,0,0,0.00000000,0.00000000,0,0,-255,0,-255,0,0,0,0,14.4,12.77,1.83888,10.9311
853,0,0,6.01127,29.2502,0,0,0,0.00000000,0.00000000,0,0,-255,0,-255,0,0,0,0,15.8,12.78,2.01924,10.7608
854,0,0,6.01934,28.1922,0,0,0,0.00000000,0.00000000,0,0,-255,0,-255,0,0,0,0,15.8,12.78,2.01924,10.7608
855,0,0,6.02722,27.1852,0,0,0,0.00000000,0.00000000,0,0,-255,0,-255,0,0,0,0,15.8,12.78,2.01924,10.7608
856,0,0,6.03498,26.2191,0,0,0,0.00000000,0.00000000,0,0,-255,0,-255,0,0,0,0,15.8,12.78,2.01924,10.7608
857,0,0,6.0423,25.3277,0,0,0,0.00000000,0.00000000,0,0,-255,0,-255,0,0,0,0,15.7,12.67,1.98919,10.6808
858,0,0,6.04969,24.4486,0,0,0,0.00000000,0.00000000,0,0,-255,0,-255,0,0,0,0,15.7,12.67,1.98919,10.6808
859,0,0,6.05648,23.658,0,0,0,0.00000000,0.00000000,0,0,-255,0,-255,0,0,0,0,19.1,12.69,2.42379,10.2662
860,0,0,6.0617,23.0624,0,0,0,0.00000000,0.00000000,0,0,-255,0,-255,0,0,0,0,19.1,12.69,2.42379,10.2662
861,0,0,6.06832,22.3178,0,0,0,0.00000000,0.00000000,0,0,-255,0,-255,0,0,0,0,24.7,12.76,3.15172,9.60828
862,0,0,6.0746,21.6238,0,0,0,0.00000000,0.00000000,0,0,-255,0,-255,0,0,0,0,24.7,12.76,3.15172,9.60828
863,0,0,6.08061,20.9725,0,0,0,0.00000000,0.00000000,0,0,-255,0,-255,0,0,0,0,29.9,12.78,3.82122,8.95878
864,0,0,6.0866,20.3328,0,0,0,0.00000000,0.00000000,0,0,-255,0,-255,0,0,0,0,29.9,12.78,3.82122,8.95878
865,0,0,6.09233,19.7297,0,0,0,0.00000000,0.00000000,0,0,-255,0,-255,0,0,0,0,40.5,12.92,5.2326,7.6874
866,0,0,6.09787,19.1553,0,0,0,0.00000000,0.00000000,0,0,-255,0,-255,0,0,0,0,40.5,12.92,5.2326,7.6874
867,0,0,6.1021,18.7218,0,0,0,0.00000000,0.00000000,0,0,-255,0,-255,0,0,0,0,46,12.91,5.9386,6.9714
868,0,0,6.10731,18.1947,0,0,0,0.00000000,0.00000000,0,0,-255,0,-255,0,0,0,0,46,12.91,5.9386,6.9714
869,0,0,6.11254,17.6703,0,0,0,0.00000000,0.00000000,0,0,-255,0,-255,0,0,0,0,51.4,12.9,6.6306,6.2694
870,0,0,6.11767,17.1624,0,0,0,0.00000000,0.00000000,0,0,-255,0,-255,0,0,0,0,51.4,12.9,6.6306,6.2694
871,0,0,6.12269,16.6702,0,0,0,0.00000000,0.00000000,0,0,-255,0,-255,0,0,0,0,55.8,12.89,7.19262,5.69738
872,0,0,6.12642,16.3086,0,0,0,0.00000000,0.00000000,0,0,-255,0,-255,0,0,0,0,55.8,12.89,7.19262,5.69738
873,0,0,6.13103,15.8642,0,0,0,0.00000000,0.00000000,0,0,-255,0,-255,0,0,0,0,58.6,12.88,7.54768,5.33232
874,0,0,6.13547,15.4402,0,0,0,0.00000000,0.00000000,0,0,-255,0,-255,0,0,0,0,58.6,12.88,7.54768,5.33232
875,0,0,6.13985,15.0245,0,0,0,0.00000000,0.00000000,0,0,-255,0,-255,0,0,0,0,60.3,12.87,7.76061,5.10939
876,0,0,6.1442,14.6141,0,0,0,0.00000000,0.00000000,0,0,-255,0,-255,0,0,0,0,60.3,12.87,7.76061,5.10939
877,0,0,6.14827,14.2331,0,0,0,0.00000000,0.00000000,0,0,-255,0,-255,0,0,0,0,61.3,12.85,7.87705,4.97295
878,0,0,6.15227,13.8598,0,0,0,0.00000000,0.00000000,0,0,-255,0,-255,0,0,0,0,61.3,12.85,7.87705,4.97295
879,0,0,6.15538,13.5712,0,0,0,0.00000000,0.00000000,0,0,-255,0,-255,0,0,0,0,61.9,12.85,7.95415,4.89585
880,0,0,6.15921,13.217,0,0,0,0.00000000,0.00000000,0,0,-255,0,-255,0,0,0,0,61.9,12.85,7.95415,4.89585
881,0,0,6.16294,12.873,0,0,0,0.00000000,0.00000000,0,0,-255,0,-255,0,0,0,0,62.4,12.84,8.01216,4.82784
882,0,0,6.16653,12.5426,0,0,0,0.00000000,0.00000000,0,0,-255,0,-255,0,0,0,0,62.4,12.84,8.01216,4.82784
883,0,0,6.17008,12.2163,0,0,0,0.00000000,0.00000000,0,0,-255,0,-255,0,0,0,0,62.8,12.84,8.06352,4.77648
884,0,0,6.17347,11.9057,0,0,0,0.00000000,0.00000000,0,0,-255,0,-255,0,0,0,0,62.8,12.84,8.06352,4.77648
885,0,0,6.17679,11.6008,0,0,0,0.00000000,0.00000000,0,0,-255,0,-255,0,0,0,0,63.1,12.85,8.10835,4.74165
886,0,0,6.18003,11.3039,0,0,0,0.00000000,0.00000000,0,0,-255,0,-255,0,0,0,0,63.1,12.85,8.10835,4.74165
887,0,0,6.18317,11.0161,0,0,0,0.00000000,0.00000000,0,0,-255,0,-255,0,0,0,0,63.4,12.85,8.1469,4.7031
888,0,0,6.18624,10.734,0,0,0,0.00000000,0.00000000,0,0,-255,0,-255,0,0,0,0,63.4,12.85,8.1469,4.7031
889,0,0,6.18863,10.5133,0,0,0,0.00000000,0.00000000,0,0,-255,0,-255,0,0,0,0,63.5,12.85,8.15975,4.69025
890,0,0,6.19157,10.2423,0,0,0,0.00000000,0.00000000,0,0,-255,0,-255,0,0,0,0,63.5,12.85,8.15975,4.69025
891,0,0,6.19443,9.97777,0,0,0,0.00000000,0.00000000,0,0,-255,0,-255,0,0,0,0,63.5,12.85,8.15975,4.69025
892,0,0,6.19739,9.70223,0,0,0,0.00000000,0.00000000,0,0,-255,0,-255,0,0,0,0,63.5,12.85,8.15975,4.69025
893,0,0,6.20014,9.44558,0,0,0,0.00000000,0.00000000,0,0,-255,0,-255,0,0,0,0,63,12.82,8.0766,4.7434
894,0,0,6.2028,9.19578,0,0,0,0.00000000,0.00000000,0,0,-255,0,-255,0,0,0,0,63,12.82,8.0766,4.7434
895,0,0,6.20488,8.99903,0,0,0,0.00000000,0.00000000,0,0,-255,0,-255,0,0,0,0,63.2,12.82,8.10224,4.71776
896,0,0,6.20746,8.75403,0,0,0,0.00000000,0.00000000,0,0,-255,0,-255,0,0,0,0,63.2,12.82,8.10224,4.71776
897,0,0,6.20989,8.52141,0,0,0,0.00000000,0.00000000,0,0,-255,0,-255,0,0,0,0,63.2,12.82,8.10224,4.71776
898,0,0,6.21225,8.29426,0,0,0,0.00000000,0.00000000,0,0,-255,0,-255,0,0,0,0,62.1,12.81,7.95501,4.85499
899,0,0,6.21465,8.06076,0,0,0,0.00000000,0.00000000,0,0,-255,0,-255,0,0,0,0,62.1,12.81,7.95501,4.85499
900,0,0,6.21689,7.8401,0,0,0,0.00000000,0.00000000,0,0,-255,0,-255,0,0,0,0,62.1,12.81,7.95501,4.85499
901,0,0,6.2191,7.62074,0,0,0,0.00000000,0.00000000,0,0,-255,0,-255,0,0,0,0,59.3,12.8,7.5904,5.2096
902,0,0,6.22121,7.40885,0,0,0,0.00000000,0.00000000,0,0,-255,0,-255,0,0,0,0,59.3,12.8,7.5904,5.2096
903,0,0,6.22337,7.19006,0,0,0,0.00000000,0.00000000,0,0,-255,0,-255,0,0,0,0,57.7,12.8,7.3856,5.4144
904,0,0,6.22537,6.98351,0,0,0,0.00000000,0.00000000,0,0,-255,0,-255,0,0,0,0,57.7,12.8,7.3856,5.4144
905,0,0,6.22693,6.82122,0,0,0,0.00000000,0.00000000,0,0,-255,0,-255,0,0,0,0,55.8,12.79,7.13682,5.65318
906,0,0,6.22881,6.62297,0,0,0,0.00000000,0.00000000,0,0,-255,0,-255,0,0,0,0,55.8,12.79,7.13682,5.65318
907,0,0,6.23065,6.42655,0,0,0,0.00000000,0.00000000,0,0,-255,0,-255,0,0,0,0,55.1,12.79,7.04729,5.74271
908,0,0,6.23247,6.22853,0,0,0,0.00000000,0.00000000,0,0,-255,0,-255,0,0,0,0,55.1,12.79,7.04729,5.74271
909,0,0,6.23428,6.02832,0,0,0,0.00000000,0.00000000,0,0,-255,0,-255,0,0,0,0,55.1,12.79,7.04729,5.74271
910,0,0,6.23599,5.8351,0,0,0,0.00000000,0.00000000,0,0,-255,0,-255,0,0,0,0,55.1,12.79,7.04729,5.74271
911,0,0,6.23761,5.649,0,0,0,0.00000000,0.00000000,0,0,-255,0,-255,0,0,0,0,55.1,12.79,7.04729,5.74271
912,0,0,6.23916,5.46651,0,0,0,0.00000000,0.00000000,0,0,-255,0,-255,0,0,0,0,55.2,12.79,7.06008,5.72992
913,0,0,6.24068,5.28478,0,0,0,0.00000000,0.00000000,0,0,-255,0,-255,0,0,0,0,55.3,12.78,7.06734,5.71266
914,0,0,6.24217,5.10315,0,0,0,0.00000000,0.00000000,0,0,-255,0,-255,0,0,0,0,55.5,12.78,7.0929,5.6871
915,0,0,6.24332,4.95898,0,0,0,0.00000000,0.00000000,0,0,-255,0,-255,0,0,0,0,55.5,12.78,7.0929,5.6871
916,0,0,6.24476,4.77503,0,0,0,0.00000000,0.00000000,0,0,-255,0,-255,0,0,0,0,55.5,12.78,7.0929,5.6871
917,0,0,6.24614,4.59401,0,0,0,0.00000000,0.00000000,0,0,-255,0,-255,0,0,0,0,55.5,12.78,7.0929,5.6871
918,0,0,6.24741,4.42241,0,0,0,0.00000000,0.00000000,0,0,-255,0,-255,0,0,0,0,55.5,12.78,7.0929,5.6871
919,0,0,6.24866,4.24833,0,0,0,0.00000000,0.00000000,0,0,-255,0,-255,0,0,0,0,56,12.78,7.1568,5.6232
920,0,0,6.24986,4.0765,0,0,0,0.00000000,0.00000000,0,0,-255,0,-255,0,0,0,0,56.1,12.78,7.16958,5.61042
922,0,0,6.25092,3.91956,0,0,0,0.00000000,0.00000000,0,0,-255,0,-255,0,0,0,0,56.1,12.78,7.16958,5.61042
