secs,cad,hr,km,kph,nm,watts,alt,lon,lat,headwind,slope,temp,interval,lrbalance,lte,rte,lps,rps,smo2,thb,o2hb,hhb
0,0,0,0,0,0,0,0,0.00000000,0.00000000,0,0,-255,0,-255,0,0,0,0,69.6,12.99,9.04104,3.94896
1,88,0,9.46085e-05,1.27332,0,44,0,0.00000000,0.00000000,0,0,-255,0,-255,0,0,0,0,70.8,13.02,9.21816,3.80184
2,1,0,0.000875827,3.92026,0,58,0,0.00000000,0.00000000,0,0,-255,0,-255,0,0,0,0,70.8,13.02,9.21816,3.80184
3,88,0,0.00221647,5.35379,0,33,0,0.00000000,0.00000000,0,0,-255,0,-255,0,0,0,0,70.8,13.02,9.21816,3.80184
4,1,0,0.00385069,6.2484,0,47,0,0.00000000,0.00000000,0,0,-255,0,-255,0,0,0,0,71.6,13.05,9.3438,3.7062
5,83,0,0.00574867,7.21159,0,50,0,0.00000000,0.00000000,0,0,-255,0,-255,0,0,0,0,70.7,13.06,9.23342,3.82658
6,88,0,0.00790313,8.03569,0,49,0,0.00000000,0.00000000,0,0,-255,0,-255,0,0,0,0,70.7,13.06,9.23342,3.82658
7,93,0,0.010265,8.63671,0,38,0,0.00000000,0.00000000,0,0,-255,0,-255,0,0,0,0,70.7,13.06,9.23342,3.82658
8,93,0,0.0127669,9.08683,0,38,0,0.00000000,0.00000000,0,0,-255,0,-255,0,0,0,0,69.8,13.06,9.11588,3.94412
9,93,0,0.015364,9.28011,0,25,0,0.00000000,0.00000000,0,0,-255,0,-255,0,0,0,0,69.2,13.06,9.03752,4.02248
10,0,0,0.0180319,9.70309,0,50,0,0.00000000,0.00000000,0,0,-255,0,-255,0,0,0,0,69.2,13.06,9.03752,4.02248
11,86,0,0.0208546,10.2508,0,50,0,0.00000000,0.00000000,0,0,-255,0,-255,0,0,0,0,68.1,13.06,8.89386,4.16614
12,86,0,0.0232029,10.6464,0,50,0,0.00000000,0.00000000,0,0,-255,0,-255,0,0,0,0,68.1,13.06,8.89386,4.16614
13,85,0,0.0262814,11.1085,0,50,0,0.00000000,0.00000000,0,0,-255,0,-255,0,0,0,0,68.1,13.06,8.89386,4.16614
14,85,0,0.0294687,11.5293,0,50,0,0.00000000,0.00000000,0,0,-255,0,-255,0,0,0,0,67.8,13.05,8.8479,4.2021
15,85,0,0.0327751,11.9166,0,50,0,0.00000000,0.00000000,0,0,-255,0,-255,0,0,0,0,68.3,13.06,8.91998,4.14002
16,85,0,0.03619,12.27,0,49,0,0.00000000,0.00000000,0,0,-255,0,-255,0,0,0,0,68.3,13.06,8.91998,4.14002
17,85,0,0.0397054,12.597,0,50,0,0.00000000,0.00000000,0,0,-255,0,-255,0,0,0,0,68.9,13.06,8.99834,4.06166
18,85,0,0.043304,12.9027,0,50,0,0.00000000,0.00000000,0,0,-255,0,-255,0,0,0,0,68.9,13.06,8.99834,4.06166
19,86,0,0.0469745,13.1745,0,49,0,0.00000000,0.00000000,0,0,-255,0,-255,0,0,0,0,69.2,13.06,9.03752,4.02248
20,86,0,0.0507313,13.4267,0,49,0,0.00000000,0.00000000,0,0,-255,0,-255,0,0,0,0,69.2,13.06,9.03752,4.02248
21,86,0,0.0545523,13.6678,0,49,0,0.00000000,0.00000000,0,0,-255,0,-255,0,0,0,0,69.6,13.05,9.0828,3.9672
22,87,0,0.0584382,13.8853,0,49,0,0.00000000,0.00000000,0,0,-255,0,-255,0,0,0,0,69.6,13.05,9.0828,3.9672
23,86,0,0.0623796,14.0877,0,49,0,0.00000000,0.00000000,0,0,-255,0,-255,0,0,0,0,69.7,13.05,9.09585,3.95415
24,86,0,0.0663768,14.2765,0,49,0,0.00000000,0.00000000,0,0,-255,0,-255,0,0,0,0,69.7,13.05,9.09585,3.95415
25,87,0,0.0696156,14.4196,0,50,0,0.00000000,0.00000000,0,0,-255,0,-255,0,0,0,0,69.7,13.05,9.09585,3.95415
26,87,0,0.073712,14.5897,0,49,0,0.00000000,0.00000000,0,0,-255,0,-255,0,0,0,0,69.6,13.05,9.0828,3.9672
27,87,0,0.0778596,14.7496,0,49,0,0.00000000,0.00000000,0,0,-255,0,-255,0,0,0,0,69.6,13.05,9.0828,3.9672
28,88,0,0.0820456,14.8957,0,50,0,0.00000000,0.00000000,0,0,-255,0,-255,0,0,0,0,69.6,13.05,9.0828,3.9672
29,88,0,0.0862574,15.041,0,50,0,0.00000000,0.00000000,0,0,-255,0,-255,0,0,0,0,69.9,13.05,9.12195,3.92805
30,88,0,0.0905293,15.1732,0,50,0,0.00000000,0.00000000,0,0,-255,0,-255,0,0,0,0,69.9,13.05,9.12195,3.92805
31,89,0,0.0948127,15.3002,0,50,0,0.00000000,0.00000000,0,0,-255,0,-255,0,0,0,0,69.9,13.06,9.12894,3.93106
32,89,0,0.0991509,15.4194,0,50,0,0.00000000,0.00000000,0,0,-255,0,-255,0,0,0,0,69.9,13.06,9.12894,3.93106
33,89,0,0.103518,15.5217,0,49,0,0.00000000,0.00000000,0,0,-255,0,-255,0,0,0,0,69.9,13.06,9.12894,3.93106
34,90,0,0.107905,15.6222,0,49,0,0.00000000,0.00000000,0,0,-255,0,-255,0,0,0,0,69.6,13.05,9.0828,3.9672
35,90,0,0.112343,15.7167,0,49,0,0.00000000,0.00000000,0,0,-255,0,-255,0,0,0,0,69.6,13.05,9.0828,3.9672
36,90,0,0.116777,15.7996,0,50,0,0.00000000,0.00000000,0,0,-255,0,-255,0,0,0,0,69.6,13.05,9.0828,3.9672
37,90,0,0.121252,15.8834,0,49,0,0.00000000,0.00000000,0,0,-255,0,-255,0,0,0,0,69.7,13.05,9.09585,3.95415
38,90,0,0.124839,15.9409,0,49,0,0.00000000,0.00000000,0,0,-255,0,-255,0,0,0,0,69.7,13.05,9.09585,3.95415
39,90,0,0.129341,16.0156,0,50,0,0.00000000,0.00000000,0,0,-255,0,-255,0,0,0,0,69.7,13.05,9.09585,3.95415
40,90,0,0.133883,16.0817,0,49,0,0.00000000,0.00000000,0,0,-255,0,-255,0,0,0,0,69.8,13.05,9.1089,3.9411
41,90,0,0.138421,16.1405,0,49,0,0.00000000,0.00000000,0,0,-255,0,-255,0,0,0,0,70.5,13.05,9.20025,3.84975
42,89,0,0.142986,16.2044,0,50,0,0.00000000,0.00000000,0,0,-255,0,-255,0,0,0,0,70.5,13.05,9.20025,3.84975
43,90,0,0.147559,16.2574,0,50,0,0.00000000,0.00000000,0,0,-255,0,-255,0,0,0,0,70.5,13.05,9.20025,3.84975
44,90,0,0.152158,16.311,0,50,0,0.00000000,0.00000000,0,0,-255,0,-255,0,0,0,0,71.5,13.05,9.33075,3.71925
45,91,0,0.15676,16.362,0,49,0,0.00000000,0.00000000,0,0,-255,0,-255,0,0,0,0,71.5,13.05,9.33075,3.71925
46,91,0,0.161388,16.4099,0,50,0,0.00000000,0.00000000,0,0,-255,0,-255,0,0,0,0,72.2,13.06,9.42932,3.63068
47,88,0,0.166027,16.4587,0,51,0,0.00000000,0.00000000,0,0,-255,0,-255,0,0,0,0,72.4,13.05,9.4482,3.6018
48,98,0,0.17067,16.5031,0,49,0,0.00000000,0.00000000,0,0,-255,0,-255,0,0,0,0,72.4,13.05,9.4482,3.6018
49,89,0,0.175333,16.5245,0,36,0,0.00000000,0.00000000,0,0,-255,0,-255,0,0,0,0,72.4,13.05,9.4482,3.6018
50,88,0,0.179975,16.329,0,25,0,0.00000000,0.00000000,0,0,-255,0,-255,0,0,0,0,72.5,13.02,9.4395,3.5805
51,88,0,0.183643,16.2767,0,43,0,0.00000000,0.00000000,0,0,-255,0,-255,0,0,0,0,72.5,13.02,9.4395,3.5805
52,83,0,0.188248,16.3195,0,49,0,0.00000000,0.00000000,0,0,-255,0,-255,0,0,0,0,72.4,12.99,9.40476,3.58524
53,92,0,0.19285,16.3652,0,49,0,0.00000000,0.00000000,0,0,-255,0,-255,0,0,0,0,71.8,12.95,9.2981,3.6519
54,92,0,0.197481,16.4072,0,50,0,0.00000000,0.00000000,0,0,-255,0,-255,0,0,0,0,71.8,12.95,9.2981,3.6519
55,92,0,0.202112,16.454,0,49,0,0.00000000,0.00000000,0,0,-255,0,-255,0,0,0,0,71.8,12.95,9.2981,3.6519
56,92,0,0.20676,16.4894,0,49,0,0.00000000,0.00000000,0,0,-255,0,-255,0,0,0,0,71,12.92,9.1732,3.7468
57,92,0,0.211428,16.5226,0,49,0,0.00000000,0.00000000,0,0,-255,0,-255,0,0,0,0,71,12.92,9.1732,3.7468
58,92,0,0.216077,16.5564,0,50,0,0.00000000,0.00000000,0,0,-255,0,-255,0,0,0,0,70.2,12.9,9.0558,3.8442
59,87,0,0.220758,16.5948,0,50,0,0.00000000,0.00000000,0,0,-255,0,-255,0,0,0,0,70.2,12.9,9.0558,3.8442
60,87,0,0.225444,16.6279,0,49,0,0.00000000,0.00000000,0,0,-255,0,-255,0,0,0,0,69.1,12.9,8.9139,3.9861
61,87,0,0.230149,16.6581,0,49,0,0.00000000,0.00000000,0,0,-255,0,-255,0,0,0,0,67.9,12.89,8.75231,4.13769
62,88,0,0.234843,16.6843,0,49,0,0.00000000,0.00000000,0,0,-255,0,-255,0,0,0,0,67.9,12.89,8.75231,4.13769
63,88,0,0.239546,16.7052,0,49,0,0.00000000,0.00000000,0,0,-255,0,-255,0,0,0,0,67.9,12.89,8.75231,4.13769
64,88,0,0.24332,16.7209,0,49,0,0.00000000,0.00000000,0,0,-255,0,-255,0,0,0,0,67,12.9,8.643,4.257
65,88,0,0.248051,16.7462,0,50,0,0.00000000,0.00000000,0,0,-255,0,-255,0,0,0,0,67,12.9,8.643,4.257
66,88,0,0.252781,16.7689,0,50,0,0.00000000,0.00000000,0,0,-255,0,-255,0,0,0,0,66.4,12.9,8.5656,4.3344
67,90,0,0.257501,16.7986,0,51,0,0.00000000,0.00000000,0,0,-255,0,-255,0,0,0,0,66.4,12.9,8.5656,4.3344
68,92,0,0.26225,16.8141,0,49,0,0.00000000,0.00000000,0,0,-255,0,-255,0,0,0,0,65.9,12.91,8.50769,4.40231
69,93,0,0.266989,16.8287,0,49,0,0.00000000,0.00000000,0,0,-255,0,-255,0,0,0,0,65.7,12.94,8.50158,4.43842
70,94,0,0.271741,16.8472,0,50,0,0.00000000,0.00000000,0,0,-255,0,-255,0,0,0,0,65.7,12.94,8.50158,4.43842
71,96,0,0.276494,16.8634,0,50,0,0.00000000,0.00000000,0,0,-255,0,-255,0,0,0,0,65.5,12.97,8.49535,4.47465
72,97,0,0.281257,16.8796,0,49,0,0.00000000,0.00000000,0,0,-255,0,-255,0,0,0,0,65.5,12.97,8.49535,4.47465
73,99,0,0.286017,16.8416,0,24,0,0.00000000,0.00000000,0,0,-255,0,-255,0,0,0,0,65.3,12.99,8.48247,4.50753
74,99,0,0.29075,16.6502,0,49,0,0.00000000,0.00000000,0,0,-255,0,-255,0,0,0,0,65.3,12.99,8.48247,4.50753
75,97,0,0.295449,16.6732,0,49,0,0.00000000,0.00000000,0,0,-255,0,-255,0,0,0,0,65.1,13.02,8.47602,4.54398
76,99,0,0.300155,16.6976,0,50,0,0.00000000,0.00000000,0,0,-255,0,-255,0,0,0,0,65.1,13.02,8.47602,4.54398
77,100,0,0.303919,16.7147,0,49,0,0.00000000,0.00000000,0,0,-255,0,-255,0,0,0,0,65.1,13.02,8.47602,4.54398
78,100,0,0.308642,16.7421,0,50,0,0.00000000,0.00000000,0,0,-255,0,-255,0,0,0,0,65.1,13.02,8.47602,4.54398
79,100,0,0.313364,16.7688,0,50,0,0.00000000,0.00000000,0,0,-255,0,-255,0,0,0,0,65.3,13.04,8.51512,4.52488
80,100,0,0.318105,16.7919,0,50,0,0.00000000,0.00000000,0,0,-255,0,-255,0,0,0,0,65.5,13.04,8.5412,4.4988
81,99,0,0.322844,16.8154,0,50,0,0.00000000,0.00000000,0,0,-255,0,-255,0,0,0,0,65.5,13.04,8.5412,4.4988
82,98,0,0.327583,16.8346,0,49,0,0.00000000,0.00000000,0,0,-255,0,-255,0,0,0,0,65.9,13.04,8.59336,4.44664
83,98,0,0.332334,16.8488,0,50,0,0.00000000,0.00000000,0,0,-255,0,-255,0,0,0,0,65.9,13.04,8.59336,4.44664
84,98,0,0.337092,16.8687,0,50,0,0.00000000,0.00000000,0,0,-255,0,-255,0,0,0,0,66.4,13.04,8.65856,4.38144
85,98,0,0.341857,16.8827,0,49,0,0.00000000,0.00000000,0,0,-255,0,-255,0,0,0,0,66.8,13.04,8.71072,4.32928
86,98,0,0.346623,16.8921,0,50,0,0.00000000,0.00000000,0,0,-255,0,-255,0,0,0,0,66.8,13.04,8.71072,4.32928
87,97,0,0.351396,16.9093,0,50,0,0.00000000,0.00000000,0,0,-255,0,-255,0,0,0,0,66.8,13.04,8.71072,4.32928
88,97,0,0.35617,16.9226,0,49,0,0.00000000,0.00000000,0,0,-255,0,-255,0,0,0,0,67.2,13.04,8.76288,4.27712
89,97,0,0.360936,16.9285,0,49,0,0.00000000,0.00000000,0,0,-255,0,-255,0,0,0,0,67.5,13.04,8.802,4.238
90,98,0,0.364755,16.933,0,49,0,0.00000000,0.00000000,0,0,-255,0,-255,0,0,0,0,67.5,13.04,8.802,4.238
91,98,0,0.369537,16.9393,0,50,0,0.00000000,0.00000000,0,0,-255,0,-255,0,0,0,0,67.5,13.04,8.802,4.238
92,95,0,0.37431,16.9535,0,50,0,0.00000000,0.00000000,0,0,-255,0,-255,0,0,0,0,68,13.04,8.8672,4.1728
93,95,0,0.379086,16.8638,0,38,0,0.00000000,0.00000000,0,0,-255,0,-255,0,0,0,0,68,13.04,8.8672,4.1728
94,92,0,0.383859,16.856,0,49,0,0.00000000,0.00000000,0,0,-255,0,-255,0,0,0,0,68.1,13.04,8.88024,4.15976
95,92,0,0.388592,16.8708,0,50,0,0.00000000,0.00000000,0,0,-255,0,-255,0,0,0,0,68.1,13.04,8.88024,4.15976
96,92,0,0.393362,16.8847,0,49,0,0.00000000,0.00000000,0,0,-255,0,-255,0,0,0,0,68.4,13.04,8.91936,4.12064
97,93,0,0.39813,16.8949,0,49,0,0.00000000,0.00000000,0,0,-255,0,-255,0,0,0,0,68.4,13.04,8.91936,4.12064
98,93,0,0.40289,16.9092,0,50,0,0.00000000,0.00000000,0,0,-255,0,-255,0,0,0,0,68.7,13.05,8.96535,4.08465
99,92,0,0.407666,16.9206,0,49,0,0.00000000,0.00000000,0,0,-255,0,-255,0,0,0,0,69.3,13.06,9.05058,4.00942
100,91,0,0.412439,16.9267,0,49,0,0.00000000,0.00000000,0,0,-255,0,-255,0,0,0,0,69.3,13.06,9.05058,4.00942
101,92,0,0.417225,16.9324,0,49,0,0.00000000,0.00000000,0,0,-255,0,-255,0,0,0,0,69.9,13.06,9.12894,3.93106
102,92,0,0.421991,16.9461,0,50,0,0.00000000,0.00000000,0,0,-255,0,-255,0,0,0,0,69.9,13.06,9.12894,3.93106
103,92,0,0.425817,16.9572,0,50,0,0.00000000,0.00000000,0,0,-255,0,-255,0,0,0,0,69.9,13.06,9.12894,3.93106
104,93,0,0.430602,16.9638,0,49,0,0.00000000,0.00000000,0,0,-255,0,-255,0,0,0,0,70.6,13.07,9.22742,3.84258
105,92,0,0.4354,16.9672,0,49,0,0.00000000,0.00000000,0,0,-255,0,-255,0,0,0,0,70.6,13.07,9.22742,3.84258
106,93,0,0.440175,16.9769,0,50,0,0.00000000,0.00000000,0,0,-255,0,-255,0,0,0,0,71.4,13.07,9.33198,3.73802
107,94,0,0.444984,16.9888,0,50,0,0.00000000,0.00000000,0,0,-255,0,-255,0,0,0,0,71.4,13.07,9.33198,3.73802
108,93,0,0.449764,16.9933,0,49,0,0.00000000,0.00000000,0,0,-255,0,-255,0,0,0,0,72,13.07,9.4104,3.6596
109,93,0,0.454569,16.9948,0,49,0,0.00000000,0.00000000,0,0,-255,0,-255,0,0,0,0,72,13.07,9.4104,3.6596
110,93,0,0.459354,17.0028,0,50,0,0.00000000,0.00000000,0,0,-255,0,-255,0,0,0,0,72.4,13.08,9.46992,3.61008
111,94,0,0.464149,17.0131,0,50,0,0.00000000,0.00000000,0,0,-255,0,-255,0,0,0,0,72.4,13.07,9.46268,3.60732
112,94,0,0.468953,17.0217,0,49,0,0.00000000,0.00000000,0,0,-255,0,-255,0,0,0,0,72.4,13.07,9.46268,3.60732
113,94,0,0.473762,17.0279,0,50,0,0.00000000,0.00000000,0,0,-255,0,-255,0,0,0,0,72.4,13.07,9.46268,3.60732
114,93,0,0.478571,17.0337,0,49,0,0.00000000,0.00000000,0,0,-255,0,-255,0,0,0,0,72.4,13.07,9.46268,3.60732
115,94,0,0.483379,17.0328,0,49,0,0.00000000,0.00000000,0,0,-255,0,-255,0,0,0,0,72.4,13.07,9.46268,3.60732
116,95,0,0.487212,17.032,0,49,0,0.00000000,0.00000000,0,0,-255,0,-255,0,0,0,0,72.2,13.07,9.43654,3.63346
117,95,0,0.492015,17.0358,0,50,0,0.00000000,0.00000000,0,0,-255,0,-255,0,0,0,0,72.2,13.07,9.43654,3.63346
118,95,0,0.496826,17.0393,0,49,0,0.00000000,0.00000000,0,0,-255,0,-255,0,0,0,0,72.1,13.07,9.42347,3.64653
119,94,0,0.501637,17.0463,0,50,0,0.00000000,0.00000000,0,0,-255,0,-255,0,0,0,0,72.1,13.07,9.42347,3.64653
120,96,0,0.506446,17.052,0,50,0,0.00000000,0.00000000,0,0,-255,0,-255,0,0,0,0,72.1,13.07,9.42347,3.64653
121,96,0,0.511251,17.0582,0,49,0,0.00000000,0.00000000,0,0,-255,0,-255,0,0,0,0,72.2,13.08,9.44376,3.63624
122,96,0,0.51606,17.0557,0,49,0,0.00000000,0.00000000,0,0,-255,0,-255,0,0,0,0,72.2,13.08,9.44376,3.63624
123,96,0,0.520876,17.0561,0,50,0,0.00000000,0.00000000,0,0,-255,0,-255,0,0,0,0,72.2,13.08,9.44376,3.63624
124,94,0,0.525687,17.0583,0,49,0,0.00000000,0.00000000,0,0,-255,0,-255,0,0,0,0,71.9,13.08,9.40452,3.67548
125,98,0,0.530501,17.0577,0,49,0,0.00000000,0.00000000,0,0,-255,0,-255,0,0,0,0,71.5,13.08,9.3522,3.7278
126,98,0,0.535318,17.0617,0,50,0,0.00000000,0.00000000,0,0,-255,0,-255,0,0,0,0,71.5,13.08,9.3522,3.7278
127,98,0,0.540124,17.0682,0,50,0,0.00000000,0.00000000,0,0,-255,0,-255,0,0,0,0,70.8,13.07,9.25356,3.81644
128,98,0,0.544943,17.0744,0,50,0,0.00000000,0.00000000,0,0,-255,0,-255,0,0,0,0,70.8,13.07,9.25356,3.81644
129,98,0,0.548802,17.079,0,50,0,0.00000000,0.00000000,0,0,-255,0,-255,0,0,0,0,70.8,13.07,9.25356,3.81644
130,98,0,0.553621,17.0844,0,50,0,0.00000000,0.00000000,0,0,-255,0,-255,0,0,0,0,70,13.06,9.142,3.918
131,98,0,0.558435,17.0895,0,50,0,0.00000000,0.00000000,0,0,-255,0,-255,0,0,0,0,70,13.06,9.142,3.918
132,97,0,0.563258,17.0943,0,50,0,0.00000000,0.00000000,0,0,-255,0,-255,0,0,0,0,69.2,13.05,9.0306,4.0194
133,96,0,0.568096,17.0988,0,50,0,0.00000000,0.00000000,0,0,-255,0,-255,0,0,0,0,69.2,13.05,9.0306,4.0194
134,96,0,0.572917,17.1029,0,50,0,0.00000000,0.00000000,0,0,-255,0,-255,0,0,0,0,68.9,13.05,8.99145,4.05855
135,95,0,0.577737,17.1069,0,50,0,0.00000000,0.00000000,0,0,-255,0,-255,0,0,0,0,68.9,13.05,8.99145,4.05855
136,95,0,0.582553,17.1105,0,50,0,0.00000000,0.00000000,0,0,-255,0,-255,0,0,0,0,69,13.05,9.0045,4.0455
137,96,0,0.587401,17.1103,0,50,0,0.00000000,0.00000000,0,0,-255,0,-255,0,0,0,0,69,13.05,9.0045,4.0455
138,97,0,0.592213,17.1137,0,50,0,0.00000000,0.00000000,0,0,-255,0,-255,0,0,0,0,69.4,13.06,9.06364,3.99636
139,97,0,0.597045,17.1152,0,50,0,0.00000000,0.00000000,0,0,-255,0,-255,0,0,0,0,69.8,13.07,9.12286,3.94714
140,97,0,0.601876,17.1118,0,49,0,0.00000000,0.00000000,0,0,-255,0,-255,0,0,0,0,69.8,13.07,9.12286,3.94714
141,95,0,0.606697,17.1106,0,50,0,0.00000000,0.00000000,0,0,-255,0,-255,0,0,0,0,69.8,13.07,9.12286,3.94714
142,95,0,0.610569,17.1087,0,49,0,0.00000000,0.00000000,0,0,-255,0,-255,0,0,0,0,70.3,13.08,9.19524,3.88476
143,95,0,0.615379,17.1031,0,49,0,0.00000000,0.00000000,0,0,-255,0,-255,0,0,0,0,70.3,13.08,9.19524,3.88476
144,95,0,0.620209,17.0978,0,49,0,0.00000000,0.00000000,0,0,-255,0,-255,0,0,0,0,70.7,13.08,9.24756,3.83244
145,95,0,0.625029,17.0928,0,49,0,0.00000000,0.00000000,0,0,-255,0,-255,0,0,0,0,70.7,13.08,9.24756,3.83244
146,94,0,0.629848,17.0881,0,49,0,0.00000000,0.00000000,0,0,-255,0,-255,0,0,0,0,70.7,13.08,9.24756,3.83244
147,95,0,0.634688,17.0866,0,50,0,0.00000000,0.00000000,0,0,-255,0,-255,0,0,0,0,70.9,13.09,9.28081,3.80919
148,96,0,0.639503,17.0906,0,49,0,0.00000000,0.00000000,0,0,-255,0,-255,0,0,0,0,70.9,13.09,9.28081,3.80919
149,96,0,0.644316,17.0898,0,49,0,0.00000000,0.00000000,0,0,-255,0,-255,0,0,0,0,71.1,13.09,9.30699,3.78301
150,96,0,0.649137,17.0853,0,49,0,0.00000000,0.00000000,0,0,-255,0,-255,0,0,0,0,71.1,13.09,9.30699,3.78301
151,96,0,0.653956,17.0811,0,49,0,0.00000000,0.00000000,0,0,-255,0,-255,0,0,0,0,71.4,13.09,9.34626,3.74374
152,94,0,0.658772,17.0772,0,49,0,0.00000000,0.00000000,0,0,-255,0,-255,0,0,0,0,71.4,13.09,9.34626,3.74374
153,95,0,0.663588,17.0735,0,49,0,0.00000000,0.00000000,0,0,-255,0,-255,0,0,0,0,71.6,13.09,9.37244,3.71756
154,95,0,0.668412,17.0701,0,49,0,0.00000000,0.00000000,0,0,-255,0,-255,0,0,0,0,71.6,13.09,9.37244,3.71756
155,95,0,0.67227,17.0674,0,49,0,0.00000000,0.00000000,0,0,-255,0,-255,0,0,0,0,71.6,13.09,9.37244,3.71756
156,94,0,0.677072,17.0672,0,50,0,0.00000000,0.00000000,0,0,-255,0,-255,0,0,0,0,71.7,13.09,9.38553,3.70447
157,95,0,0.681892,17.0715,0,50,0,0.00000000,0.00000000,0,0,-255,0,-255,0,0,0,0,71.7,13.09,9.38553,3.70447
158,95,0,0.686716,17.0764,0,49,0,0.00000000,0.00000000,0,0,-255,0,-255,0,0,0,0,71.7,13.09,9.38553,3.70447
159,96,0,0.691522,17.0728,0,49,0,0.00000000,0.00000000,0,0,-255,0,-255,0,0,0,0,71.7,13.09,9.38553,3.70447
160,96,0,0.696357,17.0722,0,50,0,0.00000000,0.00000000,0,0,-255,0,-255,0,0,0,0,71.6,13.08,9.36528,3.71472
161,96,0,0.701154,17.0781,0,50,0,0.00000000,0.00000000,0,0,-255,0,-255,0,0,0,0,71.6,13.08,9.36528,3.71472
162,96,0,0.70599,17.0807,0,49,0,0.00000000,0.00000000,0,0,-255,0,-255,0,0,0,0,71.4,13.08,9.33912,3.74088
163,95,0,0.710797,17.0768,0,49,0,0.00000000,0.00000000,0,0,-255,0,-255,0,0,0,0,71,13.08,9.2868,3.7932
164,95,0,0.715611,17.075,0,49,0,0.00000000,0.00000000,0,0,-255,0,-255,0,0,0,0,71,13.08,9.2868,3.7932
165,95,0,0.720427,17.0798,0,50,0,0.00000000,0.00000000,0,0,-255,0,-255,0,0,0,0,71,13.08,9.2868,3.7932
166,94,0,0.725249,17.0814,0,50,0,0.00000000,0.00000000,0,0,-255,0,-255,0,0,0,0,71,13.08,9.2868,3.7932
167,95,0,0.730066,17.0867,0,50,0,0.00000000,0.00000000,0,0,-255,0,-255,0,0,0,0,71,13.08,9.2868,3.7932
168,95,0,0.733941,17.0888,0,50,0,0.00000000,0.00000000,0,0,-255,0,-255,0,0,0,0,70.6,13.08,9.23448,3.84552
169,95,0,0.738753,17.0871,0,49,0,0.00000000,0.00000000,0,0,-255,0,-255,0,0,0,0,70.6,13.08,9.23448,3.84552
170,95,0,0.743564,17.0865,0,49,0,0.00000000,0.00000000,0,0,-255,0,-255,0,0,0,0,70.4,13.08,9.20832,3.87168
171,95,0,0.748393,17.0842,0,49,0,0.00000000,0.00000000,0,0,-255,0,-255,0,0,0,0,70.4,13.08,9.20832,3.87168
172,94,0,0.753202,17.0884,0,50,0,0.00000000,0.00000000,0,0,-255,0,-255,0,0,0,0,70.3,13.07,9.18821,3.88179
173,95,0,0.758035,17.0923,0,49,0,0.00000000,0.00000000,0,0,-255,0,-255,0,0,0,0,70.3,13.07,9.18821,3.88179
174,91,0,0.762852,17.0876,0,49,0,0.00000000,0.00000000,0,0,-255,0,-255,0,0,0,0,70.3,13.07,9.18821,3.88179
175,91,0,0.767679,17.0861,0,50,0,0.00000000,0.00000000,0,0,-255,0,-255,0,0,0,0,70.1,13.07,9.16207,3.90793
176,91,0,0.772496,17.0911,0,50,0,0.00000000,0.00000000,0,0,-255,0,-255,0,0,0,0,70.1,13.07,9.16207,3.90793
177,91,0,0.777313,17.0958,0,50,0,0.00000000,0.00000000,0,0,-255,0,-255,0,0,0,0,70.1,13.07,9.16207,3.90793
178,91,0,0.782137,17.1002,0,50,0,0.00000000,0.00000000,0,0,-255,0,-255,0,0,0,0,70,13.07,9.149,3.921
179,91,0,0.786966,17.0978,0,49,0,0.00000000,0.00000000,0,0,-255,0,-255,0,0,0,0,69.8,13.07,9.12286,3.94714
180,90,0,0.791794,17.0975,0,50,0,0.00000000,0.00000000,0,0,-255,0,-255,0,0,0,0,69.8,13.07,9.12286,3.94714
181,92,0,0.795646,17.1009,0,50,0,0.00000000,0.00000000,0,0,-255,0,-255,0,0,0,0,69.8,13.07,9.12286,3.94714
182,92,0,0.800478,17.105,0,50,0,0.00000000,0.00000000,0,0,-255,0,-255,0,0,0,0,69.5,13.06,9.0767,3.9833
183,92,0,0.805294,17.1041,0,49,0,0.00000000,0.00000000,0,0,-255,0,-255,0,0,0,0,69.1,13.06,9.02446,4.03554
184,92,0,0.810124,17.0987,0,49,0,0.00000000,0.00000000,0,0,-255,0,-255,0,0,0,0,69.1,13.06,9.02446,4.03554
185,93,0,0.814952,17.102,0,50,0,0.00000000,0.00000000,0,0,-255,0,-255,0,0,0,0,68.8,13.05,8.9784,4.0716
186,92,0,0.819775,17.0977,0,49,0,0.00000000,0.00000000,0,0,-255,0,-255,0,0,0,0,68.8,13.05,8.9784,4.0716
187,92,0,0.824587,17.0937,0,50,0,0.00000000,0.00000000,0,0,-255,0,-255,0,0,0,0,68.4,13.05,8.9262,4.1238
188,92,0,0.829433,17.0982,0,50,0,0.00000000,0.00000000,0,0,-255,0,-255,0,0,0,0,68.4,13.05,8.9262,4.1238
189,91,0,0.834239,17.0951,0,50,0,0.00000000,0.00000000,0,0,-255,0,-255,0,0,0,0,68.4,13.05,8.9262,4.1238
190,91,0,0.839066,17.0957,0,50,0,0.00000000,0.00000000,0,0,-255,0,-255,0,0,0,0,68.2,13.04,8.89328,4.14672
191,90,0,0.843881,17.1001,0,50,0,0.00000000,0.00000000,0,0,-255,0,-255,0,0,0,0,68.2,13.04,8.89328,4.14672
192,90,0,0.848711,17.0977,0,49,0,0.00000000,0.00000000,0,0,-255,0,-255,0,0,0,0,68.4,13.05,8.9262,4.1238
193,90,0,0.853535,17.0927,0,49,0,0.00000000,0.00000000,0,0,-255,0,-255,0,0,0,0,68.8,13.05,8.9784,4.0716
194,90,0,0.857392,17.089,0,49,0,0.00000000,0.00000000,0,0,-255,0,-255,0,0,0,0,68.8,13.05,8.9784,4.0716
195,89,0,0.862205,17.0846,0,49,0,0.00000000,0.00000000,0,0,-255,0,-255,0,0,0,0,68.8,13.05,8.9784,4.0716
196,89,0,0.867027,17.0888,0,50,0,0.00000000,0.00000000,0,0,-255,0,-255,0,0,0,0,69.1,13.05,9.01755,4.03245
197,89,0,0.871857,17.0936,0,50,0,0.00000000,0.00000000,0,0,-255,0,-255,0,0,0,0,69.5,13.05,9.06975,3.98025
198,91,0,0.876681,17.0981,0,50,0,0.00000000,0.00000000,0,0,-255,0,-255,0,0,0,0,69.5,13.05,9.06975,3.98025
199,92,0,0.88151,17.0968,0,50,0,0.00000000,0.00000000,0,0,-255,0,-255,0,0,0,0,69.5,13.05,9.06975,3.98025
200,93,0,0.886336,17.1001,0,49,0,0.00000000,0.00000000,0,0,-255,0,-255,0,0,0,0,69.7,13.06,9.10282,3.95718
201,94,0,0.891145,17.1015,0,50,0,0.00000000,0.00000000,0,0,-255,0,-255,0,0,0,0,69.7,13.06,9.10282,3.95718
202,94,0,0.895968,17.099,0,49,0,0.00000000,0.00000000,0,0,-255,0,-255,0,0,0,0,69.7,13.06,9.10282,3.95718
203,94,0,0.900791,17.094,0,49,0,0.00000000,0.00000000,0,0,-255,0,-255,0,0,0,0,69.7,13.06,9.10282,3.95718
204,93,0,0.905613,17.0929,0,49,0,0.00000000,0.00000000,0,0,-255,0,-255,0,0,0,0,69.7,13.05,9.09585,3.95415
205,92,0,0.910439,17.0882,0,49,0,0.00000000,0.00000000,0,0,-255,0,-255,0,0,0,0,69.2,13.05,9.0306,4.0194
206,91,0,0.915265,17.0875,0,49,0,0.00000000,0.00000000,0,0,-255,0,-255,0,0,0,0,69.2,13.05,9.0306,4.0194
207,92,0,0.91911,17.084,0,49,0,0.00000000,0.00000000,0,0,-255,0,-255,0,0,0,0,69.2,13.05,9.0306,4.0194
208,93,0,0.923944,17.0846,0,50,0,0.00000000,0.00000000,0,0,-255,0,-255,0,0,0,0,68.6,13.05,8.9523,4.0977
209,94,0,0.928759,17.085,0,49,0,0.00000000,0.00000000,0,0,-255,0,-255,0,0,0,0,67.8,13.04,8.84112,4.19888
210,94,0,0.933576,17.0826,0,49,0,0.00000000,0.00000000,0,0,-255,0,-255,0,0,0,0,67.8,13.04,8.84112,4.19888
211,90,0,0.938399,17.0796,0,50,0,0.00000000,0.00000000,0,0,-255,0,-255,0,0,0,0,67,13.04,8.7368,4.3032
212,93,0,0.943222,17.0766,0,49,0,0.00000000,0.00000000,0,0,-255,0,-255,0,0,0,0,67,13.04,8.7368,4.3032
213,92,0,0.948031,17.073,0,49,0,0.00000000,0.00000000,0,0,-255,0,-255,0,0,0,0,66.5,13.03,8.66495,4.36505
214,92,0,0.952854,17.0695,0,49,0,0.00000000,0.00000000,0,0,-255,0,-255,0,0,0,0,66.5,13.03,8.66495,4.36505
215,92,0,0.957669,17.0747,0,50,0,0.00000000,0.00000000,0,0,-255,0,-255,0,0,0,0,66.8,13.04,8.71072,4.32928
216,92,0,0.962474,17.072,0,49,0,0.00000000,0.00000000,0,0,-255,0,-255,0,0,0,0,66.8,13.04,8.71072,4.32928
217,92,0,0.9673,17.0705,0,49,0,0.00000000,0.00000000,0,0,-255,0,-255,0,0,0,0,66.8,13.04,8.71072,4.32928
218,91,0,0.972109,17.0738,0,50,0,0.00000000,0.00000000,0,0,-255,0,-255,0,0,0,0,67.3,13.04,8.77592,4.26408
219,93,0,0.976925,17.0795,0,50,0,0.00000000,0.00000000,0,0,-255,0,-255,0,0,0,0,67.8,13.05,8.8479,4.2021
220,93,0,0.98078,17.0839,0,50,0,0.00000000,0.00000000,0,0,-255,0,-255,0,0,0,0,67.8,13.05,8.8479,4.2021
221,93,0,0.985599,17.0871,0,50,0,0.00000000,0.00000000,0,0,-255,0,-255,0,0,0,0,67.8,13.05,8.8479,4.2021
222,93,0,0.990438,17.0855,0,49,0,0.00000000,0.00000000,0,0,-255,0,-255,0,0,0,0,68.1,13.05,8.88705,4.16295
223,93,0,0.995243,17.0841,0,50,0,0.00000000,0.00000000,0,0,-255,0,-255,0,0,0,0,68.5,13.06,8.9461,4.1139
224,93,0,1.00006,17.0892,0,50,0,0.00000000,0.00000000,0,0,-255,0,-255,0,0,0,0,68.5,13.06,8.9461,4.1139
225,93,0,1.00489,17.094,0,50,0,0.00000000,0.00000000,0,0,-255,0,-255,0,0,0,0,68.5,13.06,8.9461,4.1139
226,93,0,1.00972,17.0967,0,50,0,0.00000000,0.00000000,0,0,-255,0,-255,0,0,0,0,68.7,13.06,8.97222,4.08778
227,93,0,1.01455,17.1001,0,49,0,0.00000000,0.00000000,0,0,-255,0,-255,0,0,0,0,69,13.06,9.0114,4.0486
228,92,0,1.01936,17.0968,0,49,0,0.00000000,0.00000000,0,0,-255,0,-255,0,0,0,0,69,13.06,9.0114,4.0486
229,94,0,1.0242,17.0937,0,49,0,0.00000000,0.00000000,0,0,-255,0,-255,0,0,0,0,69,13.06,9.0114,4.0486
230,93,0,1.029,17.089,0,49,0,0.00000000,0.00000000,0,0,-255,0,-255,0,0,0,0,69.2,13.06,9.03752,4.02248
231,93,0,1.03382,17.0911,0,50,0,0.00000000,0.00000000,0,0,-255,0,-255,0,0,0,0,69.2,13.06,9.03752,4.02248
232,93,0,1.03865,17.0958,0,50,0,0.00000000,0.00000000,0,0,-255,0,-255,0,0,0,0,69.3,13.06,9.05058,4.00942
233,93,0,1.04252,17.0993,0,50,0,0.00000000,0.00000000,0,0,-255,0,-255,0,0,0,0,69.3,13.06,9.05058,4.00942
234,93,0,1.04733,17.1034,0,50,0,0.00000000,0.00000000,0,0,-255,0,-255,0,0,0,0,69.2,13.06,9.03752,4.02248
235,93,0,1.05217,17.099,0,49,0,0.00000000,0.00000000,0,0,-255,0,-255,0,0,0,0,69.1,13.06,9.02446,4.03554
236,93,0,1.05697,17.094,0,49,0,0.00000000,0.00000000,0,0,-255,0,-255,0,0,0,0,69.1,13.06,9.02446,4.03554
237,91,0,1.0618,17.0892,0,49,0,0.00000000,0.00000000,0,0,-255,0,-255,0,0,0,0,69.1,13.06,9.02446,4.03554
238,90,0,1.06663,17.0848,0,49,0,0.00000000,0.00000000,0,0,-255,0,-255,0,0,0,0,68.9,13.06,8.99834,4.06166
239,91,0,1.07145,17.0816,0,50,0,0.00000000,0.00000000,0,0,-255,0,-255,0,0,0,0,68.9,13.06,8.99834,4.06166
240,94,0,1.07626,17.085,0,50,0,0.00000000,0.00000000,0,0,-255,0,-255,0,0,0,0,68.8,13.06,8.98528,4.07472
241,96,0,1.08107,17.0817,0,49,0,0.00000000,0.00000000,0,0,-255,0,-255,0,0,0,0,68.8,13.06,8.98528,4.07472
242,97,0,1.08591,17.0777,0,49,0,0.00000000,0.00000000,0,0,-255,0,-255,0,0,0,0,68.6,13.07,8.96602,4.10398
243,97,0,1.09072,17.074,0,49,0,0.00000000,0.00000000,0,0,-255,0,-255,0,0,0,0,68.6,13.07,8.96602,4.10398
244,97,0,1.09554,17.0733,0,50,0,0.00000000,0.00000000,0,0,-255,0,-255,0,0,0,0,67.8,13.06,8.85468,4.20532
245,98,0,1.10035,17.0744,0,49,0,0.00000000,0.00000000,0,0,-255,0,-255,0,0,0,0,66.6,13.06,8.69796,4.36204
246,97,0,1.10421,17.0735,0,49,0,0.00000000,0.00000000,0,0,-255,0,-255,0,0,0,0,66.6,13.06,8.69796,4.36204
247,97,0,1.10903,17.07,0,49,0,0.00000000,0.00000000,0,0,-255,0,-255,0,0,0,0,65.3,13.05,8.52165,4.52835
248,95,0,1.11383,17.0733,0,50,0,0.00000000,0.00000000,0,0,-255,0,-255,0,0,0,0,65.3,13.05,8.52165,4.52835
249,95,0,1.11865,17.0791,0,50,0,0.00000000,0.00000000,0,0,-255,0,-255,0,0,0,0,64.6,13.06,8.43676,4.62324
250,95,0,1.12347,17.0845,0,50,0,0.00000000,0.00000000,0,0,-255,0,-255,0,0,0,0,64.6,13.06,8.43676,4.62324
251,94,0,1.12829,17.0896,0,50,0,0.00000000,0.00000000,0,0,-255,0,-255,0,0,0,0,64.6,13.06,8.43676,4.62324
252,95,0,1.13312,17.0861,0,49,0,0.00000000,0.00000000,0,0,-255,0,-255,0,0,0,0,64.2,13.05,8.3781,4.6719
253,94,0,1.13794,17.0818,0,49,0,0.00000000,0.00000000,0,0,-255,0,-255,0,0,0,0,64.2,13.05,8.3781,4.6719
254,94,0,1.14275,17.0825,0,50,0,0.00000000,0.00000000,0,0,-255,0,-255,0,0,0,0,64.4,13.05,8.4042,4.6458
255,95,0,1.14758,17.0849,0,49,0,0.00000000,0.00000000,0,0,-255,0,-255,0,0,0,0,64.7,13.05,8.44335,4.60665
256,94,0,1.1524,17.0817,0,50,0,0.00000000,0.00000000,0,0,-255,0,-255,0,0,0,0,64.7,13.05,8.44335,4.60665
257,95,0,1.15721,17.0851,0,50,0,0.00000000,0.00000000,0,0,-255,0,-255,0,0,0,0,65.1,13.05,8.49555,4.55445
258,96,0,1.16203,17.0818,0,49,0,0.00000000,0.00000000,0,0,-255,0,-255,0,0,0,0,65.1,13.05,8.49555,4.55445
259,95,0,1.16589,17.0786,0,49,0,0.00000000,0.00000000,0,0,-255,0,-255,0,0,0,0,65.1,13.05,8.49555,4.55445
260,95,0,1.17071,17.0776,0,50,0,0.00000000,0.00000000,0,0,-255,0,-255,0,0,0,0,65.2,13.06,8.51512,4.54488
261,95,0,1.17553,17.0831,0,50,0,0.00000000,0.00000000,0,0,-255,0,-255,0,0,0,0,65.2,13.06,8.51512,4.54488
262,95,0,1.18036,17.08,0,49,0,0.00000000,0.00000000,0,0,-255,0,-255,0,0,0,0,65.2,13.06,8.51512,4.54488
263,94,0,1.18515,17.0761,0,49,0,0.00000000,0.00000000,0,0,-255,0,-255,0,0,0,0,65.2,13.06,8.51512,4.54488
264,94,0,1.18998,17.0772,0,50,0,0.00000000,0.00000000,0,0,-255,0,-255,0,0,0,0,65.4,13.05,8.5347,4.5153
265,94,0,1.1948,17.0827,0,50,0,0.00000000,0.00000000,0,0,-255,0,-255,0,0,0,0,66,13.06,8.6196,4.4404
266,94,0,1.19962,17.0879,0,50,0,0.00000000,0.00000000,0,0,-255,0,-255,0,0,0,0,66,13.06,8.6196,4.4404
267,91,0,1.20445,17.0872,0,50,0,0.00000000,0.00000000,0,0,-255,0,-255,0,0,0,0,66,13.06,8.6196,4.4404
268,91,0,1.20927,17.0921,0,50,0,0.00000000,0.00000000,0,0,-255,0,-255,0,0,0,0,66.5,13.06,8.6849,4.3751
269,90,0,1.21408,17.0967,0,50,0,0.00000000,0.00000000,0,0,-255,0,-255,0,0,0,0,66.5,13.06,8.6849,4.3751
270,90,0,1.2189,17.1011,0,50,0,0.00000000,0.00000000,0,0,-255,0,-255,0,0,0,0,67,13.06,8.7502,4.3098
271,90,0,1.22372,17.1042,0,49,0,0.00000000,0.00000000,0,0,-255,0,-255,0,0,0,0,67,13.06,8.7502,4.3098
272,90,0,1.2276,17.1027,0,50,0,0.00000000,0.00000000,0,0,-255,0,-255,0,0,0,0,67.4,13.07,8.80918,4.26082
273,90,0,1.23241,17.1019,0,49,0,0.00000000,0.00000000,0,0,-255,0,-255,0,0,0,0,67.4,13.07,8.80918,4.26082
274,92,0,1.23725,17.0967,0,49,0,0.00000000,0.00000000,0,0,-255,0,-255,0,0,0,0,67.5,13.07,8.82225,4.24775
275,92,0,1.24206,17.0965,0,50,0,0.00000000,0.00000000,0,0,-255,0,-255,0,0,0,0,67.1,13.07,8.76997,4.30003
276,92,0,1.24688,17.1008,0,50,0,0.00000000,0.00000000,0,0,-255,0,-255,0,0,0,0,67.1,13.07,8.76997,4.30003
277,92,0,1.25171,17.1021,0,49,0,0.00000000,0.00000000,0,0,-255,0,-255,0,0,0,0,66.8,13.06,8.72408,4.33592
278,92,0,1.25654,17.1015,0,50,0,0.00000000,0.00000000,0,0,-255,0,-255,0,0,0,0,66.8,13.06,8.72408,4.33592
279,92,0,1.26136,17.099,0,49,0,0.00000000,0.00000000,0,0,-255,0,-255,0,0,0,0,66.8,13.06,8.72408,4.33592
280,92,0,1.26618,17.094,0,49,0,0.00000000,0.00000000,0,0,-255,0,-255,0,0,0,0,66.4,13.06,8.67184,4.38816
281,92,0,1.27102,17.0958,0,50,0,0.00000000,0.00000000,0,0,-255,0,-255,0,0,0,0,66,13.05,8.613,4.437
282,91,0,1.27583,17.0973,0,49,0,0.00000000,0.00000000,0,0,-255,0,-255,0,0,0,0,66,13.05,8.613,4.437
283,90,0,1.28064,17.0952,0,50,0,0.00000000,0.00000000,0,0,-255,0,-255,0,0,0,0,65.8,13.05,8.5869,4.4631
284,90,0,1.28547,17.0968,0,49,0,0.00000000,0.00000000,0,0,-255,0,-255,0,0,0,0,65.8,13.05,8.5869,4.4631
285,90,0,1.28934,17.0928,0,49,0,0.00000000,0.00000000,0,0,-255,0,-255,0,0,0,0,65.8,13.05,8.5869,4.4631
286,91,0,1.29415,17.0965,0,50,0,0.00000000,0.00000000,0,0,-255,0,-255,0,0,0,0,65.7,13.06,8.58042,4.47958
287,91,0,1.29899,17.1008,0,50,0,0.00000000,0.00000000,0,0,-255,0,-255,0,0,0,0,65.7,13.06,8.58042,4.47958
288,90,0,1.30381,17.0984,0,49,0,0.00000000,0.00000000,0,0,-255,0,-255,0,0,0,0,65.8,13.06,8.59348,4.46652
289,91,0,1.30862,17.097,0,49,0,0.00000000,0.00000000,0,0,-255,0,-255,0,0,0,0,66,13.06,8.6196,4.4404
290,91,0,1.31344,17.0921,0,49,0,0.00000000,0.00000000,0,0,-255,0,-255,0,0,0,0,66,13.06,8.6196,4.4404
291,90,0,1.31827,17.094,0,50,0,0.00000000,0.00000000,0,0,-255,0,-255,0,0,0,0,66.5,13.06,8.6849,4.3751
292,90,0,1.32309,17.0957,0,49,0,0.00000000,0.00000000,0,0,-255,0,-255,0,0,0,0,66.5,13.06,8.6849,4.3751
293,90,0,1.32792,17.0936,0,50,0,0.00000000,0.00000000,0,0,-255,0,-255,0,0,0,0,67.1,13.07,8.76997,4.30003
294,88,0,1.33273,17.0935,0,49,0,0.00000000,0.00000000,0,0,-255,0,-255,0,0,0,0,67.1,13.07,8.76997,4.30003
295,89,0,1.33756,17.0971,0,50,0,0.00000000,0.00000000,0,0,-255,0,-255,0,0,0,0,67.7,13.07,8.84839,4.22161
296,89,0,1.34238,17.0931,0,49,0,0.00000000,0.00000000,0,0,-255,0,-255,0,0,0,0,67.7,13.07,8.84839,4.22161
297,89,0,1.3472,17.0949,0,50,0,0.00000000,0.00000000,0,0,-255,0,-255,0,0,0,0,67.7,13.07,8.84839,4.22161
298,89,0,1.35106,17.092,0,49,0,0.00000000,0.00000000,0,0,-255,0,-255,0,0,0,0,68.3,13.07,8.92681,4.14319
299,89,0,1.3559,17.0921,0,50,0,0.00000000,0.00000000,0,0,-255,0,-255,0,0,0,0,68.3,13.07,8.92681,4.14319
300,89,0,1.36071,17.0883,0,49,0,0.00000000,0.00000000,0,0,-255,0,-255,0,0,0,0,68.7,13.07,8.97909,4.09091
301,88,0,1.36553,17.0923,0,50,0,0.00000000,0.00000000,0,0,-255,0,-255,0,0,0,0,69.1,13.07,9.03137,4.03863
302,88,0,1.37034,17.0084,0,24,0,0.00000000,0.00000000,0,0,-255,0,-255,0,0,0,0,69.1,13.07,9.03137,4.03863
303,88,0,1.37509,16.6138,0,0,0,0.00000000,0.00000000,0,0,-255,0,-255,0,0,0,0,69.1,13.07,9.03137,4.03863
304,88,0,1.37972,16.1652,0,0,0,0.00000000,0.00000000,0,0,-255,0,-255,0,0,0,0,68.9,13.05,8.99145,4.05855
305,0,0,1.38422,15.7328,0,0,0,0.00000000,0.00000000,0,0,-255,0,-255,0,0,0,0,68.9,13.05,8.99145,4.05855
306,0,0,1.38859,15.316,0,0,0,0.00000000,0.00000000,0,0,-255,0,-255,0,0,0,0,68.4,13.01,8.89884,4.11116
307,0,0,1.39288,14.9103,0,0,0,0.00000000,0.00000000,0,0,-255,0,-255,0,0,0,0,68.1,12.96,8.82576,4.13424
308,0,0,1.39701,14.5216,0,0,0,0.00000000,0.00000000,0,0,-255,0,-255,0,0,0,0,68.1,12.96,8.82576,4.13424
309,0,0,1.40105,14.1431,0,0,0,0.00000000,0.00000000,0,0,-255,0,-255,0,0,0,0,68.1,12.96,8.82576,4.13424
310,0,0,1.405,13.7756,0,0,0,0.00000000,0.00000000,0,0,-255,0,-255,0,0,0,0,67.7,12.91,8.74007,4.16993
311,0,0,1.40807,13.4903,0,0,0,0.00000000,0.00000000,0,0,-255,0,-255,0,0,0,0,67.7,12.91,8.74007,4.16993
312,0,0,1.41183,13.1427,0,0,0,0.00000000,0.00000000,0,0,-255,0,-255,0,0,0,0,66.9,12.85,8.59665,4.25335
313,0,0,1.41549,12.8052,0,0,0,0.00000000,0.00000000,0,0,-255,0,-255,0,0,0,0,66.9,12.85,8.59665,4.25335
314,0,0,1.41906,12.4775,0,0,0,0.00000000,0.00000000,0,0,-255,0,-255,0,0,0,0,66.4,12.82,8.51248,4.30752
315,0,0,1.42253,12.1585,0,0,0,0.00000000,0.00000000,0,0,-255,0,-255,0,0,0,0,66.4,12.82,8.51248,4.30752
316,0,0,1.42592,11.8477,0,0,0,0.00000000,0.00000000,0,0,-255,0,-255,0,0,0,0,66.4,12.82,8.51248,4.30752
317,0,0,1.42921,11.5459,0,0,0,0.00000000,0.00000000,0,0,-255,0,-255,0,0,0,0,66.4,12.82,8.51248,4.30752
318,0,0,1.43242,11.2516,0,0,0,0.00000000,0.00000000,0,0,-255,0,-255,0,0,0,0,64.4,12.79,8.23676,4.55324
319,0,0,1.43556,10.9638,0,0,0,0.00000000,0.00000000,0,0,-255,0,-255,0,0,0,0,64.4,12.79,8.23676,4.55324
320,0,0,1.43862,10.6829,0,0,0,0.00000000,0.00000000,0,0,-255,0,-255,0,0,0,0,63.4,12.79,8.10886,4.68114
321,0,0,1.44159,10.409,0,0,0,0.00000000,0.00000000,0,0,-255,0,-255,0,0,0,0,63.4,12.8,8.1152,4.6848
322,0,0,1.44449,10.141,0,0,0,0.00000000,0.00000000,0,0,-255,0,-255,0,0,0,0,63.4,12.8,8.1152,4.6848
323,0,0,1.44732,9.87917,0,0,0,0.00000000,0.00000000,0,0,-255,0,-255,0,0,0,0,63.4,12.8,8.1152,4.6848
324,0,0,1.44952,9.67419,0,0,0,0.00000000,0.00000000,0,0,-255,0,-255,0,0,0,0,63.4,12.8,8.1152,4.6848
325,0,0,1.45222,9.42205,0,0,0,0.00000000,0.00000000,0,0,-255,0,-255,0,0,0,0,63.4,12.8,8.1152,4.6848
326,0,0,1.45483,9.17625,0,0,0,0.00000000,0.00000000,0,0,-255,0,-255,0,0,0,0,65.2,12.82,8.35864,4.46136
327,0,0,1.4574,8.93385,0,0,0,0.00000000,0.00000000,0,0,-255,0,-255,0,0,0,0,66.4,12.84,8.52576,4.31424
328,0,0,1.45988,8.69801,0,0,0,0.00000000,0.00000000,0,0,-255,0,-255,0,0,0,0,66.4,12.84,8.52576,4.31424
329,0,0,1.4623,8.46559,0,0,0,0.00000000,0.00000000,0,0,-255,0,-255,0,0,0,0,67.6,12.87,8.70012,4.16988
330,0,0,1.46466,8.23797,0,0,0,0.00000000,0.00000000,0,0,-255,0,-255,0,0,0,0,67.6,12.87,8.70012,4.16988
331,0,0,1.46695,8.01472,0,0,0,0.00000000,0.00000000,0,0,-255,0,-255,0,0,0,0,68.4,12.89,8.81676,4.07324
332,0,0,1.46918,7.79491,0,0,0,0.00000000,0.00000000,0,0,-255,0,-255,0,0,0,0,68.4,12.89,8.81676,4.07324
333,0,0,1.47135,7.57915,0,0,0,0.00000000,0.00000000,0,0,-255,0,-255,0,0,0,0,68.9,12.91,8.89499,4.01501
334,0,0,1.47345,7.36727,0,0,0,0.00000000,0.00000000,0,0,-255,0,-255,0,0,0,0,68.9,12.91,8.89499,4.01501
335,0,0,1.4755,7.15873,0,0,0,0.00000000,0.00000000,0,0,-255,0,-255,0,0,0,0,69.8,12.94,9.03212,3.90788
336,0,0,1.47749,6.95323,0,0,0,0.00000000,0.00000000,0,0,-255,0,-255,0,0,0,0,69.8,12.94,9.03212,3.90788
337,0,0,1.47904,6.79156,0,0,0,0.00000000,0.00000000,0,0,-255,0,-255,0,0,0,0,69.8,12.94,9.03212,3.90788
338,0,0,1.48093,6.59187,0,0,0,0.00000000,0.00000000,0,0,-255,0,-255,0,0,0,0,71.1,12.96,9.21456,3.74544
339,0,0,1.48276,6.39523,0,0,0,0.00000000,0.00000000,0,0,-255,0,-255,0,0,0,0,71.1,12.96,9.21456,3.74544
340,0,0,1.48454,6.20155,0,0,0,0.00000000,0.00000000,0,0,-255,0,-255,0,0,0,0,72.2,12.97,9.36434,3.60566
341,0,0,1.48626,6.01061,0,0,0,0.00000000,0.00000000,0,0,-255,0,-255,0,0,0,0,73.4,12.97,9.51998,3.45002
342,0,0,1.48793,5.82201,0,0,0,0.00000000,0.00000000,0,0,-255,0,-255,0,0,0,0,73.4,12.97,9.51998,3.45002
343,0,0,1.48955,5.63592,0,0,0,0.00000000,0.00000000,0,0,-255,0,-255,0,0,0,0,74.5,12.99,9.67755,3.31245
344,0,0,1.49111,5.45211,0,0,0,0.00000000,0.00000000,0,0,-255,0,-255,0,0,0,0,74.5,12.99,9.67755,3.31245
345,0,0,1.49262,5.27107,0,0,0,0.00000000,0.00000000,0,0,-255,0,-255,0,0,0,0,74.5,12.99,9.67755,3.31245
346,0,0,1.49409,5.09122,0,0,0,0.00000000,0.00000000,0,0,-255,0,-255,0,0,0,0,75.8,13.04,9.88432,3.15568
347,0,0,1.4955,4.91486,0,0,0,0.00000000,0.00000000,0,0,-255,0,-255,0,0,0,0,76.7,13.08,10.0324,3.04764
348,0,0,1.49686,4.73907,0,0,0,0.00000000,0.00000000,0,0,-255,0,-255,0,0,0,0,76.7,13.08,10.0324,3.04764
349,0,0,1.49817,4.56651,0,0,0,0.00000000,0.00000000,0,0,-255,0,-255,0,0,0,0,76.7,13.08,10.0324,3.04764
350,0,0,1.49919,4.42919,0,0,0,0.00000000,0.00000000,0,0,-255,0,-255,0,0,0,0,77.6,13.14,10.1966,2.94336
351,0,0,1.50042,4.25857,0,0,0,0.00000000,0.00000000,0,0,-255,0,-255,0,0,0,0,78.5,13.2,10.362,2.838
352,0,0,1.50159,4.09049,0,0,0,0.00000000,0.00000000,0,0,-255,0,-255,0,0,0,0,78.5,13.2,10.362,2.838
353,0,0,1.50272,3.92369,0,0,0,0.00000000,0.00000000,0,0,-255,0,-255,0,0,0,0,79.1,13.25,10.4807,2.76925
354,0,0,1.50381,3.75834,0,0,0,0.00000000,0.00000000,0,0,-255,0,-255,0,0,0,0,79.1,13.25,10.4807,2.76925
355,0,0,1.50484,3.59399,0,0,0,0.00000000,0.00000000,0,0,-255,0,-255,0,0,0,0,79.1,13.25,10.4807,2.76925
356,0,0,1.50583,3.43176,0,0,0,0.00000000,0.00000000,0,0,-255,0,-255,0,0,0,0,79.1,13.25,10.4807,2.76925
357,0,0,1.50678,3.27021,0,0,0,0.00000000,0.00000000,0,0,-255,0,-255,0,0,0,0,79.1,13.25,10.4807,2.76925
358,0,0,1.50768,3.10999,0,0,0,0.00000000,0.00000000,0,0,-255,0,-255,0,0,0,0,79.1,13.25,10.4807,2.76925
359,0,0,1.50853,2.9507,0,0,0,0.00000000,0.00000000,0,0,-255,0,-255,0,0,0,0,78.9,13.22,10.4306,2.78942
360,0,0,1.50935,2.79241,0,0,0,0.00000000,0.00000000,0,0,-255,0,-255,0,0,0,0,78.9,13.22,10.4306,2.78942
361,0,0,1.51013,2.86519,0,8,0,0.00000000,0.00000000,0,0,-255,0,-255,0,0,0,0,78.9,13.22,10.4306,2.78942
362,0,0,1.51101,3.45302,0,23,0,0.00000000,0.00000000,0,0,-255,0,-255,0,0,0,0,78.7,13.21,10.3963,2.81373
363,1,0,1.51189,4.40234,0,44,0,0.00000000,0.00000000,0,0,-255,0,-255,0,0,0,0,78.7,13.21,10.3963,2.81373
364,71,0,1.51333,5.93592,0,79,0,0.00000000,0.00000000,0,0,-255,0,-255,0,0,0,0,78.6,13.19,10.3673,2.82266
365,82,0,1.51527,7.79148,0,99,0,0.00000000,0.00000000,0,0,-255,0,-255,0,0,0,0,78.6,13.19,10.3673,2.82266
366,83,0,1.5177,9.38048,0,100,0,0.00000000,0.00000000,0,0,-255,0,-255,0,0,0,0,78.6,13.19,10.3673,2.82266
367,84,0,1.52053,10.6906,0,100,0,0.00000000,0.00000000,0,0,-255,0,-255,0,0,0,0,78.6,13.19,10.3673,2.82266
368,84,0,1.52372,11.8093,0,99,0,0.00000000,0.00000000,0,0,-255,0,-255,0,0,0,0,78.6,13.19,10.3673,2.82266
369,83,0,1.52719,12.7877,0,101,0,0.00000000,0.00000000,0,0,-255,0,-255,0,0,0,0,78.7,13.19,10.3805,2.80947
370,84,0,1.53092,13.6686,0,100,0,0.00000000,0.00000000,0,0,-255,0,-255,0,0,0,0,78.7,13.19,10.3805,2.80947
371,87,0,1.53489,14.45,0,101,0,0.00000000,0.00000000,0,0,-255,0,-255,0,0,0,0,78.8,13.18,10.3858,2.79416
372,88,0,1.53907,15.1508,0,100,0,0.00000000,0.00000000,0,0,-255,0,-255,0,0,0,0,78.8,13.18,10.3858,2.79416
373,89,0,1.54343,15.7819,0,100,0,0.00000000,0.00000000,0,0,-255,0,-255,0,0,0,0,78.6,13.17,10.3516,2.81838
374,90,0,1.54796,16.3517,0,99,0,0.00000000,0.00000000,0,0,-255,0,-255,0,0,0,0,78.6,13.17,10.3516,2.81838
375,88,0,1.55265,16.8736,0,101,0,0.00000000,0.00000000,0,0,-255,0,-255,0,0,0,0,78.1,13.17,10.2858,2.88423
376,89,0,1.55651,17.2596,0,100,0,0.00000000,0.00000000,0,0,-255,0,-255,0,0,0,0,78.1,13.17,10.2858,2.88423
377,89,0,1.56143,17.6985,0,100,0,0.00000000,0.00000000,0,0,-255,0,-255,0,0,0,0,77.1,13.15,10.1387,3.01135
378,89,0,1.5665,18.1055,0,100,0,0.00000000,0.00000000,0,0,-255,0,-255,0,0,0,0,77.1,13.15,10.1387,3.01135
379,89,0,1.57164,18.4744,0,100,0,0.00000000,0.00000000,0,0,-255,0,-255,0,0,0,0,75.4,13.13,9.90002,3.22998
380,89,0,1.57691,18.8123,0,100,0,0.00000000,0.00000000,0,0,-255,0,-255,0,0,0,0,75.4,13.13,9.90002,3.22998
381,90,0,1.58227,19.1196,0,100,0,0.00000000,0.00000000,0,0,-255,0,-255,0,0,0,0,75.4,13.13,9.90002,3.22998
382,91,0,1.5877,19.4077,0,100,0,0.00000000,0.00000000,0,0,-255,0,-255,0,0,0,0,72.9,13.1,9.5499,3.5501
383,91,0,1.5932,19.6672,0,100,0,0.00000000,0.00000000,0,0,-255,0,-255,0,0,0,0,72.9,13.1,9.5499,3.5501
384,89,0,1.59879,19.9082,0,100,0,0.00000000,0.00000000,0,0,-255,0,-255,0,0,0,0,70.1,13.08,9.16908,3.91092
385,88,0,1.60443,20.1322,0,100,0,0.00000000,0.00000000,0,0,-255,0,-255,0,0,0,0,70.1,13.08,9.16908,3.91092
386,90,0,1.61016,20.3356,0,99,0,0.00000000,0.00000000,0,0,-255,0,-255,0,0,0,0,66.9,13.05,8.73045,4.31955
387,91,0,1.61592,20.5196,0,99,0,0.00000000,0.00000000,0,0,-255,0,-255,0,0,0,0,66.9,13.05,8.73045,4.31955
388,91,0,1.62173,20.6887,0,100,0,0.00000000,0.00000000,0,0,-255,0,-255,0,0,0,0,64.2,13.04,8.37168,4.66832
389,91,0,1.62641,20.8196,0,100,0,0.00000000,0.00000000,0,0,-255,0,-255,0,0,0,0,64.2,13.04,8.37168,4.66832
390,90,0,1.6323,20.9692,0,99,0,0.00000000,0.00000000,0,0,-255,0,-255,0,0,0,0,62.1,13.03,8.09163,4.93837
391,91,0,1.63824,21.1045,0,100,0,0.00000000,0.00000000,0,0,-255,0,-255,0,0,0,0,62.1,13.03,8.09163,4.93837
392,92,0,1.64422,21.2335,0,101,0,0.00000000,0.00000000,0,0,-255,0,-255,0,0,0,0,60.9,13.03,7.93527,5.09473
393,92,0,1.65021,21.3535,0,100,0,0.00000000,0.00000000,0,0,-255,0,-255,0,0,0,0,60.9,13.03,7.93527,5.09473
394,92,0,1.65627,21.4581,0,100,0,0.00000000,0.00000000,0,0,-255,0,-255,0,0,0,0,60,13.02,7.812,5.208
395,90,0,1.66232,21.5979,0,118,0,0.00000000,0.00000000,0,0,-255,0,-255,0,0,0,0,59.5,13.02,7.7469,5.2731
396,90,0,1.66845,21.8507,0,124,0,0.00000000,0.00000000,0,0,-255,0,-255,0,0,0,0,59.5,13.02,7.7469,5.2731
397,90,0,1.67466,22.0947,0,124,0,0.00000000,0.00000000,0,0,-255,0,-255,0,0,0,0,59.2,13.01,7.70192,5.30808
398,90,0,1.68093,22.3202,0,125,0,0.00000000,0.00000000,0,0,-255,0,-255,0,0,0,0,59.2,13.01,7.70192,5.30808
399,89,0,1.68726,22.525,0,124,0,0.00000000,0.00000000,0,0,-255,0,-255,0,0,0,0,59,13.01,7.6759,5.3341
400,89,0,1.69363,22.7113,0,124,0,0.00000000,0.00000000,0,0,-255,0,-255,0,0,0,0,59,13.01,7.6759,5.3341
401,89,0,1.70006,22.8823,0,124,0,0.00000000,0.00000000,0,0,-255,0,-255,0,0,0,0,58.9,13.02,7.66878,5.35122
402,89,0,1.70524,23.0125,0,125,0,0.00000000,0.00000000,0,0,-255,0,-255,0,0,0,0,58.9,13.02,7.66878,5.35122
403,88,0,1.71175,23.1593,0,125,0,0.00000000,0.00000000,0,0,-255,0,-255,0,0,0,0,58.9,13.02,7.66878,5.35122
404,88,0,1.71832,23.2972,0,125,0,0.00000000,0.00000000,0,0,-255,0,-255,0,0,0,0,58.8,13.02,7.65576,5.36424
405,88,0,1.72489,23.4219,0,124,0,0.00000000,0.00000000,0,0,-255,0,-255,0,0,0,0,58.8,13.02,7.65576,5.36424
406,87,0,1.73153,23.5322,0,124,0,0.00000000,0.00000000,0,0,-255,0,-255,0,0,0,0,58.5,13.02,7.6167,5.4033
407,88,0,1.73819,23.6345,0,124,0,0.00000000,0.00000000,0,0,-255,0,-255,0,0,0,0,57.9,13.02,7.53858,5.48142
408,88,0,1.74487,23.7275,0,125,0,0.00000000,0.00000000,0,0,-255,0,-255,0,0,0,0,57.9,13.02,7.53858,5.48142
409,89,0,1.75156,23.815,0,124,0,0.00000000,0.00000000,0,0,-255,0,-255,0,0,0,0,57,13.02,7.4214,5.5986
410,89,0,1.75829,23.8976,0,124,0,0.00000000,0.00000000,0,0,-255,0,-255,0,0,0,0,57,13.02,7.4214,5.5986
411,88,0,1.76505,23.968,0,124,0,0.00000000,0.00000000,0,0,-255,0,-255,0,0,0,0,56.3,13.02,7.33026,5.68974
412,89,0,1.77182,24.0325,0,124,0,0.00000000,0.00000000,0,0,-255,0,-255,0,0,0,0,56.3,13.02,7.33026,5.68974
413,89,0,1.77862,24.093,0,124,0,0.00000000,0.00000000,0,0,-255,0,-255,0,0,0,0,55.7,13.02,7.25214,5.76786
414,89,0,1.78541,24.1503,0,125,0,0.00000000,0.00000000,0,0,-255,0,-255,0,0,0,0,55.7,13.02,7.25214,5.76786
415,89,0,1.79086,24.1953,0,125,0,0.00000000,0.00000000,0,0,-255,0,-255,0,0,0,0,55.7,13.02,7.25214,5.76786
416,89,0,1.7977,24.2429,0,124,0,0.00000000,0.00000000,0,0,-255,0,-255,0,0,0,0,56,13.02,7.2912,5.7288
417,90,0,1.80454,24.2852,0,125,0,0.00000000,0.00000000,0,0,-255,0,-255,0,0,0,0,56.5,13.02,7.3563,5.6637
418,89,0,1.81141,24.3298,0,125,0,0.00000000,0.00000000,0,0,-255,0,-255,0,0,0,0,56.5,13.02,7.3563,5.6637
419,89,0,1.81828,24.37,0,124,0,0.00000000,0.00000000,0,0,-255,0,-255,0,0,0,0,57.2,13.02,7.44744,5.57256
420,90,0,1.82514,24.4016,0,125,0,0.00000000,0.00000000,0,0,-255,0,-255,0,0,0,0,57.2,13.02,7.44744,5.57256
421,89,0,1.83204,24.434,0,125,0,0.00000000,0.00000000,0,0,-255,0,-255,0,0,0,0,57.8,13.02,7.52556,5.49444
422,89,0,1.83894,24.5081,0,143,0,0.00000000,0.00000000,0,0,-255,0,-255,0,0,0,0,57.8,13.02,7.52556,5.49444
423,89,0,1.84588,24.6854,0,150,0,0.00000000,0.00000000,0,0,-255,0,-255,0,0,0,0,57.9,13.01,7.53279,5.47721
424,89,0,1.85287,24.8704,0,154,0,0.00000000,0.00000000,0,0,-255,0,-255,0,0,0,0,57.9,13.01,7.53279,5.47721
425,93,0,1.85992,25.0361,0,150,0,0.00000000,0.00000000,0,0,-255,0,-255,0,0,0,0,57.6,13.02,7.49952,5.52048
426,94,0,1.867,25.1663,0,149,0,0.00000000,0.00000000,0,0,-255,0,-255,0,0,0,0,57.6,13.02,7.49952,5.52048
427,94,0,1.87412,25.2876,0,150,0,0.00000000,0.00000000,0,0,-255,0,-255,0,0,0,0,57.5,13.02,7.4865,5.5335
428,93,0,1.87982,25.3805,0,149,0,0.00000000,0.00000000,0,0,-255,0,-255,0,0,0,0,57.5,13.02,7.4865,5.5335
429,92,0,1.88699,25.4835,0,149,0,0.00000000,0.00000000,0,0,-255,0,-255,0,0,0,0,57.5,13.02,7.4865,5.5335
430,92,0,1.89422,25.5819,0,150,0,0.00000000,0.00000000,0,0,-255,0,-255,0,0,0,0,57.4,13.02,7.47348,5.54652
431,92,0,1.90144,25.6713,0,149,0,0.00000000,0.00000000,0,0,-255,0,-255,0,0,0,0,57.4,13.02,7.47348,5.54652
432,93,0,1.90869,25.743,0,148,0,0.00000000,0.00000000,0,0,-255,0,-255,0,0,0,0,57.1,13.02,7.43442,5.58558
433,92,0,1.91597,25.8166,0,150,0,0.00000000,0.00000000,0,0,-255,0,-255,0,0,0,0,57.2,13.03,7.45316,5.57684
434,92,0,1.92326,25.8853,0,149,0,0.00000000,0.00000000,0,0,-255,0,-255,0,0,0,0,57.2,13.03,7.45316,5.57684
435,92,0,1.93056,25.9435,0,149,0,0.00000000,0.00000000,0,0,-255,0,-255,0,0,0,0,57.2,13.03,7.45316,5.57684
436,91,0,1.93789,25.9992,0,149,0,0.00000000,0.00000000,0,0,-255,0,-255,0,0,0,0,57.5,13.03,7.49225,5.53775
437,92,0,1.94523,26.0514,0,151,0,0.00000000,0.00000000,0,0,-255,0,-255,0,0,0,0,57.5,13.03,7.49225,5.53775
438,92,0,1.9526,26.103,0,150,0,0.00000000,0.00000000,0,0,-255,0,-255,0,0,0,0,57.5,13.03,7.49225,5.53775
439,93,0,1.95997,26.1471,0,150,0,0.00000000,0.00000000,0,0,-255,0,-255,0,0,0,0,56.9,13.03,7.41407,5.61593
440,94,0,1.96734,26.1866,0,149,0,0.00000000,0.00000000,0,0,-255,0,-255,0,0,0,0,56.9,13.03,7.41407,5.61593
441,93,0,1.97325,26.2113,0,149,0,0.00000000,0.00000000,0,0,-255,0,-255,0,0,0,0,56.9,13.03,7.41407,5.61593
442,94,0,1.98065,26.2398,0,149,0,0.00000000,0.00000000,0,0,-255,0,-255,0,0,0,0,56.5,13.03,7.36195,5.66805
443,94,0,1.98805,26.2658,0,149,0,0.00000000,0.00000000,0,0,-255,0,-255,0,0,0,0,56,13.02,7.2912,5.7288
444,94,0,1.99547,26.2895,0,149,0,0.00000000,0.00000000,0,0,-255,0,-255,0,0,0,0,56,13.02,7.2912,5.7288
445,94,0,2.00288,26.3112,0,149,0,0.00000000,0.00000000,0,0,-255,0,-255,0,0,0,0,55.2,13.01,7.18152,5.82848
446,94,0,2.01031,26.3309,0,149,0,0.00000000,0.00000000,0,0,-255,0,-255,0,0,0,0,55.2,13.01,7.18152,5.82848
447,94,0,2.01776,26.3532,0,150,0,0.00000000,0.00000000,0,0,-255,0,-255,0,0,0,0,54.5,13.01,7.09045,5.91955
448,94,0,2.02518,26.3697,0,149,0,0.00000000,0.00000000,0,0,-255,0,-255,0,0,0,0,54.5,13.01,7.09045,5.91955
449,92,0,2.03262,26.3831,0,149,0,0.00000000,0.00000000,0,0,-255,0,-255,0,0,0,0,54.5,13.01,7.09045,5.91955
450,92,0,2.04007,26.3965,0,149,0,0.00000000,0.00000000,0,0,-255,0,-255,0,0,0,0,53.9,13.01,7.01239,5.99761
451,91,0,2.04754,26.4155,0,156,0,0.00000000,0.00000000,0,0,-255,0,-255,0,0,0,0,53.2,13.01,6.92132,6.08868
452,92,0,2.05498,26.5139,0,171,0,0.00000000,0.00000000,0,0,-255,0,-255,0,0,0,0,53.2,13.01,6.92132,6.08868
453,92,0,2.06248,26.6456,0,171,0,0.00000000,0.00000000,0,0,-255,0,-255,0,0,0,0,52.3,13.02,6.80946,6.21054
454,90,0,2.0685,26.7504,0,173,0,0.00000000,0.00000000,0,0,-255,0,-255,0,0,0,0,52.3,13.02,6.80946,6.21054
455,92,0,2.07608,26.8832,0,176,0,0.00000000,0.00000000,0,0,-255,0,-255,0,0,0,0,51.7,13.03,6.73651,6.29349
456,92,0,2.08369,27.0076,0,174,0,0.00000000,0.00000000,0,0,-255,0,-255,0,0,0,0,51.7,13.03,6.73651,6.29349
457,92,0,2.09133,27.1113,0,174,0,0.00000000,0.00000000,0,0,-255,0,-255,0,0,0,0,51.1,13.03,6.65833,6.37167
458,92,0,2.09898,27.2067,0,175,0,0.00000000,0.00000000,0,0,-255,0,-255,0,0,0,0,51.1,13.03,6.65833,6.37167
459,91,0,2.10667,27.2976,0,175,0,0.00000000,0.00000000,0,0,-255,0,-255,0,0,0,0,51.1,13.03,6.65833,6.37167
460,90,0,2.11438,27.376,0,174,0,0.00000000,0.00000000,0,0,-255,0,-255,0,0,0,0,51.1,13.03,6.65833,6.37167
461,90,0,2.12211,27.4494,0,175,0,0.00000000,0.00000000,0,0,-255,0,-255,0,0,0,0,51.1,13.03,6.65833,6.37167
462,91,0,2.12986,27.5193,0,174,0,0.00000000,0.00000000,0,0,-255,0,-255,0,0,0,0,51.1,13.03,6.65833,6.37167
463,92,0,2.13763,27.5784,0,175,0,0.00000000,0.00000000,0,0,-255,0,-255,0,0,0,0,50.9,13.03,6.63227,6.39773
464,91,0,2.14543,27.6337,0,175,0,0.00000000,0.00000000,0,0,-255,0,-255,0,0,0,0,50.9,13.03,6.63227,6.39773
465,91,0,2.15322,27.6809,0,174,0,0.00000000,0.00000000,0,0,-255,0,-255,0,0,0,0,51,13.03,6.6453,6.3847
466,90,0,2.16103,27.7238,0,175,0,0.00000000,0.00000000,0,0,-255,0,-255,0,0,0,0,51,13.03,6.6453,6.3847
467,90,0,2.16729,27.7579,0,174,0,0.00000000,0.00000000,0,0,-255,0,-255,0,0,0,0,51,13.03,6.6453,6.3847
468,90,0,2.17514,27.792,0,174,0,0.00000000,0.00000000,0,0,-255,0,-255,0,0,0,0,51.5,13.03,6.71045,6.31955
469,90,0,2.18299,27.8321,0,176,0,0.00000000,0.00000000,0,0,-255,0,-255,0,0,0,0,51.3,13.03,6.68439,6.34561
470,90,0,2.19085,27.8711,0,175,0,0.00000000,0.00000000,0,0,-255,0,-255,0,0,0,0,51.3,13.03,6.68439,6.34561
471,91,0,2.1987,27.8924,0,173,0,0.00000000,0.00000000,0,0,-255,0,-255,0,0,0,0,51.3,13.03,6.68439,6.34561
472,90,0,2.20659,27.9187,0,175,0,0.00000000,0.00000000,0,0,-255,0,-255,0,0,0,0,50.5,13.03,6.58015,6.44985
473,91,0,2.21446,27.9424,0,175,0,0.00000000,0.00000000,0,0,-255,0,-255,0,0,0,0,50.1,13.03,6.52803,6.50197
474,90,0,2.22234,27.9622,0,174,0,0.00000000,0.00000000,0,0,-255,0,-255,0,0,0,0,50.1,13.03,6.52803,6.50197
475,90,0,2.23023,27.9832,0,176,0,0.00000000,0.00000000,0,0,-255,0,-255,0,0,0,0,49.3,13.03,6.42379,6.60621
476,91,0,2.23813,28.0048,0,175,0,0.00000000,0.00000000,0,0,-255,0,-255,0,0,0,0,49.3,13.03,6.42379,6.60621
477,91,0,2.24603,28.02,0,174,0,0.00000000,0.00000000,0,0,-255,0,-255,0,0,0,0,49.3,13.03,6.42379,6.60621
478,92,0,2.25394,28.0349,0,175,0,0.00000000,0.00000000,0,0,-255,0,-255,0,0,0,0,48.2,13.03,6.28046,6.74954
479,92,0,2.26186,28.049,0,175,0,0.00000000,0.00000000,0,0,-255,0,-255,0,0,0,0,47.2,13.03,6.15016,6.87984
480,92,0,2.26818,28.0571,0,175,0,0.00000000,0.00000000,0,0,-255,0,-255,0,0,0,0,47.2,13.03,6.15016,6.87984
481,92,0,2.2761,28.0692,0,175,0,0.00000000,0.00000000,0,0,-255,0,-255,0,0,0,0,47.2,13.03,6.15016,6.87984
482,92,0,2.28403,28.117,0,194,0,0.00000000,0.00000000,0,0,-255,0,-255,0,0,0,0,47.2,13.03,6.15016,6.87984
483,93,0,2.29199,28.2628,0,200,0,0.00000000,0.00000000,0,0,-255,0,-255,0,0,0,0,47.8,13.03,6.22834,6.80166
484,94,0,2.29998,28.3852,0,198,0,0.00000000,0.00000000,0,0,-255,0,-255,0,0,0,0,47.8,13.03,6.22834,6.80166
485,93,0,2.308,28.4968,0,198,0,0.00000000,0.00000000,0,0,-255,0,-255,0,0,0,0,48.2,13.03,6.28046,6.74954
486,92,0,2.31605,28.6016,0,199,0,0.00000000,0.00000000,0,0,-255,0,-255,0,0,0,0,48.2,13.03,6.28046,6.74954
487,90,0,2.32415,28.6971,0,199,0,0.00000000,0.00000000,0,0,-255,0,-255,0,0,0,0,48.2,13.03,6.28046,6.74954
488,91,0,2.33224,28.784,0,199,0,0.00000000,0.00000000,0,0,-255,0,-255,0,0,0,0,48.7,13.03,6.34561,6.68439
489,91,0,2.34037,28.8628,0,201,0,0.00000000,0.00000000,0,0,-255,0,-255,0,0,0,0,48.7,13.03,6.34561,6.68439
490,92,0,2.34853,28.9318,0,199,0,0.00000000,0.00000000,0,0,-255,0,-255,0,0,0,0,49,13.03,6.3847,6.6453
491,91,0,2.3567,28.995,0,199,0,0.00000000,0.00000000,0,0,-255,0,-255,0,0,0,0,49,13.03,6.3847,6.6453
492,91,0,2.3649,29.0534,0,199,0,0.00000000,0.00000000,0,0,-255,0,-255,0,0,0,0,48.7,13.03,6.34561,6.68439
493,91,0,2.37145,29.0972,0,200,0,0.00000000,0.00000000,0,0,-255,0,-255,0,0,0,0,48.7,13.03,6.34561,6.68439
494,91,0,2.37966,29.1423,0,198,0,0.00000000,0.00000000,0,0,-255,0,-255,0,0,0,0,48.5,13.03,6.31955,6.71045
495,90,0,2.38788,29.1799,0,198,0,0.00000000,0.00000000,0,0,-255,0,-255,0,0,0,0,48.4,13.03,6.30652,6.72348
496,88,0,2.39614,29.2151,0,198,0,0.00000000,0.00000000,0,0,-255,0,-255,0,0,0,0,48.4,13.03,6.30652,6.72348
497,86,0,2.40436,29.2483,0,199,0,0.00000000,0.00000000,0,0,-255,0,-255,0,0,0,0,48.4,13.03,6.30652,6.72348
498,86,0,2.41262,29.279,0,199,0,0.00000000,0.00000000,0,0,-255,0,-255,0,0,0,0,47.8,13.03,6.22834,6.80166
499,85,0,2.42091,29.309,0,201,0,0.00000000,0.00000000,0,0,-255,0,-255,0,0,0,0,47,13.02,6.1194,6.9006
500,85,0,2.42916,29.3444,0,201,0,0.00000000,0.00000000,0,0,-255,0,-255,0,0,0,0,47,13.02,6.1194,6.9006
501,86,0,2.43747,29.3711,0,199,0,0.00000000,0.00000000,0,0,-255,0,-255,0,0,0,0,46.4,13.03,6.04592,6.98408
502,86,0,2.44573,29.3904,0,200,0,0.00000000,0.00000000,0,0,-255,0,-255,0,0,0,0,46.4,13.03,6.04592,6.98408
503,88,0,2.45403,29.4159,0,200,0,0.00000000,0.00000000,0,0,-255,0,-255,0,0,0,0,45.2,13.04,5.89408,7.14592
504,88,0,2.46235,29.4336,0,200,0,0.00000000,0.00000000,0,0,-255,0,-255,0,0,0,0,45.2,13.04,5.89408,7.14592
505,89,0,2.47064,29.4479,0,199,0,0.00000000,0.00000000,0,0,-255,0,-255,0,0,0,0,43.6,13.04,5.68544,7.35456
506,89,0,2.4773,29.4599,0,200,0,0.00000000,0.00000000,0,0,-255,0,-255,0,0,0,0,43.6,13.04,5.68544,7.35456
507,87,0,2.48559,29.4781,0,201,0,0.00000000,0.00000000,0,0,-255,0,-255,0,0,0,0,43.6,13.04,5.68544,7.35456
508,89,0,2.49392,29.4952,0,201,0,0.00000000,0.00000000,0,0,-255,0,-255,0,0,0,0,42.1,13.05,5.49405,7.55595
509,90,0,2.50225,29.5041,0,199,0,0.00000000,0.00000000,0,0,-255,0,-255,0,0,0,0,42.1,13.05,5.49405,7.55595
510,90,0,2.51059,29.5101,0,199,0,0.00000000,0.00000000,0,0,-255,0,-255,0,0,0,0,41.2,13.06,5.38072,7.67928
511,89,0,2.51892,29.5129,0,200,0,0.00000000,0.00000000,0,0,-255,0,-255,0,0,0,0,40.6,13.06,5.30236,7.75764
512,88,0,2.52723,29.5255,0,200,0,0.00000000,0.00000000,0,0,-255,0,-255,0,0,0,0,40.6,13.06,5.30236,7.75764
513,88,0,2.53557,29.5342,0,199,0,0.00000000,0.00000000,0,0,-255,0,-255,0,0,0,0,40.7,13.05,5.31135,7.73865
514,90,0,2.54391,29.5415,0,199,0,0.00000000,0.00000000,0,0,-255,0,-255,0,0,0,0,40.7,13.05,5.31135,7.73865
515,90,0,2.55223,29.5743,0,217,0,0.00000000,0.00000000,0,0,-255,0,-255,0,0,0,0,41,13.05,5.3505,7.6995
516,89,0,2.56058,29.6881,0,225,0,0.00000000,0.00000000,0,0,-255,0,-255,0,0,0,0,41,13.05,5.3505,7.6995
517,87,0,2.56898,29.8165,0,227,0,0.00000000,0.00000000,0,0,-255,0,-255,0,0,0,0,40.7,13.05,5.31135,7.73865
518,89,0,2.5774,29.9365,0,226,0,0.00000000,0.00000000,0,0,-255,0,-255,0,0,0,0,40.7,13.05,5.31135,7.73865
519,91,0,2.58418,30.0165,0,224,0,0.00000000,0.00000000,0,0,-255,0,-255,0,0,0,0,40.7,13.05,5.31135,7.73865
520,90,0,2.59265,30.0997,0,223,0,0.00000000,0.00000000,0,0,-255,0,-255,0,0,0,0,41.4,13.04,5.39856,7.64144
521,90,0,2.60115,30.1825,0,225,0,0.00000000,0.00000000,0,0,-255,0,-255,0,0,0,0,42.2,13.04,5.50288,7.53712
522,89,0,2.60969,30.2581,0,225,0,0.00000000,0.00000000,0,0,-255,0,-255,0,0,0,0,42.2,13.04,5.50288,7.53712
523,91,0,2.61822,30.3249,0,225,0,0.00000000,0.00000000,0,0,-255,0,-255,0,0,0,0,42,13.04,5.4768,7.5632
524,91,0,2.62681,30.3842,0,225,0,0.00000000,0.00000000,0,0,-255,0,-255,0,0,0,0,42,13.04,5.4768,7.5632
525,91,0,2.63536,30.4387,0,224,0,0.00000000,0.00000000,0,0,-255,0,-255,0,0,0,0,42,13.04,5.4768,7.5632
526,91,0,2.64396,30.488,0,225,0,0.00000000,0.00000000,0,0,-255,0,-255,0,0,0,0,41.5,13.04,5.4116,7.6284
527,90,0,2.65256,30.5318,0,225,0,0.00000000,0.00000000,0,0,-255,0,-255,0,0,0,0,42.2,13.04,5.50288,7.53712
528,91,0,2.66118,30.5723,0,225,0,0.00000000,0.00000000,0,0,-255,0,-255,0,0,0,0,42.2,13.04,5.50288,7.53712
529,91,0,2.66982,30.6102,0,224,0,0.00000000,0.00000000,0,0,-255,0,-255,0,0,0,0,42.8,13.04,5.58112,7.45888
530,91,0,2.67847,30.6377,0,224,0,0.00000000,0.00000000,0,0,-255,0,-255,0,0,0,0,42.8,13.04,5.58112,7.45888
531,91,0,2.68711,30.665,0,225,0,0.00000000,0.00000000,0,0,-255,0,-255,0,0,0,0,42.7,13.04,5.56808,7.47192
532,90,0,2.69403,30.6843,0,224,0,0.00000000,0.00000000,0,0,-255,0,-255,0,0,0,0,42.7,13.04,5.56808,7.47192
533,90,0,2.70271,30.7054,0,224,0,0.00000000,0.00000000,0,0,-255,0,-255,0,0,0,0,42.2,13.04,5.50288,7.53712
534,90,0,2.71135,30.7249,0,225,0,0.00000000,0.00000000,0,0,-255,0,-255,0,0,0,0,42.2,13.04,5.50288,7.53712
535,90,0,2.72002,30.7439,0,225,0,0.00000000,0.00000000,0,0,-255,0,-255,0,0,0,0,42.2,13.04,5.50288,7.53712
536,90,0,2.72872,30.7606,0,224,0,0.00000000,0.00000000,0,0,-255,0,-255,0,0,0,0,42.3,13.04,5.51592,7.52408
537,89,0,2.73739,30.7772,0,226,0,0.00000000,0.00000000,0,0,-255,0,-255,0,0,0,0,42.6,13.04,5.55504,7.48496
538,91,0,2.74609,30.7936,0,225,0,0.00000000,0.00000000,0,0,-255,0,-255,0,0,0,0,42.6,13.04,5.55504,7.48496
539,91,0,2.75475,30.8062,0,224,0,0.00000000,0.00000000,0,0,-255,0,-255,0,0,0,0,41.8,13.03,5.44654,7.58346
540,91,0,2.76344,30.8151,0,224,0,0.00000000,0.00000000,0,0,-255,0,-255,0,0,0,0,41.8,13.03,5.44654,7.58346
541,91,0,2.77214,30.8293,0,226,0,0.00000000,0.00000000,0,0,-255,0,-255,0,0,0,0,41.8,13.03,5.44654,7.58346
542,90,0,2.78084,30.8955,0,246,0,0.00000000,0.00000000,0,0,-255,0,-255,0,0,0,0,41.1,13.03,5.35533,7.67467
543,90,0,2.78958,31.0164,0,249,0,0.00000000,0.00000000,0,0,-255,0,-255,0,0,0,0,41.1,13.03,5.35533,7.67467
544,90,0,2.79835,31.1379,0,252,0,0.00000000,0.00000000,0,0,-255,0,-255,0,0,0,0,41.8,13.03,5.44654,7.58346
545,91,0,2.8054,31.2292,0,252,0,0.00000000,0.00000000,0,0,-255,0,-255,0,0,0,0,41.8,13.03,5.44654,7.58346
546,92,0,2.81424,31.3259,0,248,0,0.00000000,0.00000000,0,0,-255,0,-255,0,0,0,0,42.4,13.04,5.52896,7.51104
547,90,0,2.82306,31.4044,0,250,0,0.00000000,0.00000000,0,0,-255,0,-255,0,0,0,0,42.1,13.03,5.48563,7.54437
548,90,0,2.83194,31.482,0,250,0,0.00000000,0.00000000,0,0,-255,0,-255,0,0,0,0,42.1,13.03,5.48563,7.54437
549,91,0,2.84082,31.551,0,249,0,0.00000000,0.00000000,0,0,-255,0,-255,0,0,0,0,42.1,13.03,5.48563,7.54437
550,91,0,2.84975,31.6095,0,249,0,0.00000000,0.00000000,0,0,-255,0,-255,0,0,0,0,42.5,13.04,5.542,7.498
551,90,0,2.85869,31.6618,0,249,0,0.00000000,0.00000000,0,0,-255,0,-255,0,0,0,0,42.9,13.04,5.59416,7.44584
552,89,0,2.8676,31.7091,0,250,0,0.00000000,0.00000000,0,0,-255,0,-255,0,0,0,0,42.9,13.04,5.59416,7.44584
553,89,0,2.87655,31.7515,0,249,0,0.00000000,0.00000000,0,0,-255,0,-255,0,0,0,0,41.9,13.04,5.46376,7.57624
554,89,0,2.88552,31.7881,0,249,0,0.00000000,0.00000000,0,0,-255,0,-255,0,0,0,0,41.9,13.04,5.46376,7.57624
555,88,0,2.89448,31.8204,0,248,0,0.00000000,0.00000000,0,0,-255,0,-255,0,0,0,0,40.9,13.04,5.33336,7.70664
556,87,0,2.90347,31.8484,0,249,0,0.00000000,0.00000000,0,0,-255,0,-255,0,0,0,0,40.9,13.04,5.33336,7.70664
557,87,0,2.91246,31.8825,0,252,0,0.00000000,0.00000000,0,0,-255,0,-255,0,0,0,0,41,13.04,5.3464,7.6936
558,89,0,2.91965,31.9075,0,251,0,0.00000000,0.00000000,0,0,-255,0,-255,0,0,0,0,41,13.04,5.3464,7.6936
559,90,0,2.92867,31.9358,0,249,0,0.00000000,0.00000000,0,0,-255,0,-255,0,0,0,0,41,13.04,5.3464,7.6936
560,90,0,2.93767,31.9558,0,250,0,0.00000000,0.00000000,0,0,-255,0,-255,0,0,0,0,40.5,13.05,5.28525,7.76475
561,90,0,2.94669,31.9771,0,250,0,0.00000000,0.00000000,0,0,-255,0,-255,0,0,0,0,40.5,13.05,5.28525,7.76475
562,89,0,2.95572,31.9919,0,249,0,0.00000000,0.00000000,0,0,-255,0,-255,0,0,0,0,39.4,13.05,5.1417,7.9083
563,90,0,2.96474,32.0056,0,249,0,0.00000000,0.00000000,0,0,-255,0,-255,0,0,0,0,39.4,13.04,5.13776,7.90224
564,90,0,2.97377,32.0203,0,250,0,0.00000000,0.00000000,0,0,-255,0,-255,0,0,0,0,39.4,13.04,5.13776,7.90224
565,90,0,2.98281,32.0319,0,248,0,0.00000000,0.00000000,0,0,-255,0,-255,0,0,0,0,39.9,13.04,5.20296,7.83704
566,88,0,2.99184,32.0341,0,247,0,0.00000000,0.00000000,0,0,-255,0,-255,0,0,0,0,39.9,13.04,5.20296,7.83704
567,85,0,3.00087,32.0351,0,248,0,0.00000000,0.00000000,0,0,-255,0,-255,0,0,0,0,39.7,13.04,5.17688,7.86312
568,85,0,3.00992,32.0404,0,248,0,0.00000000,0.00000000,0,0,-255,0,-255,0,0,0,0,39.7,13.04,5.17688,7.86312
569,84,0,3.01896,32.0447,0,249,0,0.00000000,0.00000000,0,0,-255,0,-255,0,0,0,0,39,13.05,5.0895,7.9605
570,84,0,3.028,32.0579,0,251,0,0.00000000,0.00000000,0,0,-255,0,-255,0,0,0,0,39,13.05,5.0895,7.9605
571,84,0,3.03524,32.0737,0,253,0,0.00000000,0.00000000,0,0,-255,0,-255,0,0,0,0,39,13.05,5.0895,7.9605
572,87,0,3.04429,32.1151,0,268,0,0.00000000,0.00000000,0,0,-255,0,-255,0,0,0,0,38.9,13.05,5.07645,7.97355
573,87,0,3.05337,32.2253,0,274,0,0.00000000,0.00000000,0,0,-255,0,-255,0,0,0,0,37.9,13.05,4.94595,8.10405
574,89,0,3.06248,32.3373,0,275,0,0.00000000,0.00000000,0,0,-255,0,-255,0,0,0,0,37.9,13.05,4.94595,8.10405
575,90,0,3.07162,32.4399,0,275,0,0.00000000,0.00000000,0,0,-255,0,-255,0,0,0,0,37.1,13.06,4.84526,8.21474
576,90,0,3.08079,32.5315,0,275,0,0.00000000,0.00000000,0,0,-255,0,-255,0,0,0,0,37.1,13.06,4.84526,8.21474
577,90,0,3.08996,32.6164,0,276,0,0.00000000,0.00000000,0,0,-255,0,-255,0,0,0,0,36.7,13.06,4.79302,8.26698
578,92,0,3.09918,32.6862,0,274,0,0.00000000,0.00000000,0,0,-255,0,-255,0,0,0,0,36.7,13.06,4.79302,8.26698
579,92,0,3.10842,32.7472,0,275,0,0.00000000,0.00000000,0,0,-255,0,-255,0,0,0,0,36.7,13.06,4.79302,8.26698
580,92,0,3.11768,32.8055,0,276,0,0.00000000,0.00000000,0,0,-255,0,-255,0,0,0,0,36.5,13.06,4.7669,8.2931
581,92,0,3.12691,32.8557,0,274,0,0.00000000,0.00000000,0,0,-255,0,-255,0,0,0,0,36.6,13.06,4.77996,8.28004
582,93,0,3.13619,32.8971,0,274,0,0.00000000,0.00000000,0,0,-255,0,-255,0,0,0,0,36.6,13.06,4.77996,8.28004
583,92,0,3.14548,32.9322,0,274,0,0.00000000,0.00000000,0,0,-255,0,-255,0,0,0,0,37.6,13.06,4.91056,8.14944
584,92,0,3.15294,32.9582,0,274,0,0.00000000,0.00000000,0,0,-255,0,-255,0,0,0,0,37.6,13.06,4.91056,8.14944
585,91,0,3.16221,32.9885,0,274,0,0.00000000,0.00000000,0,0,-255,0,-255,0,0,0,0,37.3,13.05,4.86765,8.18235
586,91,0,3.17153,33.0157,0,274,0,0.00000000,0.00000000,0,0,-255,0,-255,0,0,0,0,37.3,13.05,4.86765,8.18235
587,90,0,3.18084,33.0414,0,275,0,0.00000000,0.00000000,0,0,-255,0,-255,0,0,0,0,36.2,13.05,4.7241,8.3259
588,89,0,3.19017,33.0692,0,276,0,0.00000000,0.00000000,0,0,-255,0,-255,0,0,0,0,36.2,13.05,4.7241,8.3259
589,90,0,3.19949,33.0901,0,275,0,0.00000000,0.00000000,0,0,-255,0,-255,0,0,0,0,35.5,13.05,4.63275,8.41725
590,91,0,3.20886,33.1092,0,273,0,0.00000000,0.00000000,0,0,-255,0,-255,0,0,0,0,35.5,13.05,4.63275,8.41725
591,90,0,3.2182,33.1203,0,276,0,0.00000000,0.00000000,0,0,-255,0,-255,0,0,0,0,34.6,13.05,4.5153,8.5347
592,90,0,3.22755,33.1414,0,275,0,0.00000000,0.00000000,0,0,-255,0,-255,0,0,0,0,34.6,13.05,4.5153,8.5347
593,92,0,3.23688,33.1603,0,276,0,0.00000000,0.00000000,0,0,-255,0,-255,0,0,0,0,33.7,13.05,4.39785,8.65215
594,92,0,3.24625,33.1705,0,275,0,0.00000000,0.00000000,0,0,-255,0,-255,0,0,0,0,33.7,13.05,4.39785,8.65215
595,92,0,3.25559,33.1806,0,274,0,0.00000000,0.00000000,0,0,-255,0,-255,0,0,0,0,33.7,13.05,4.39785,8.65215
596,92,0,3.26496,33.194,0,276,0,0.00000000,0.00000000,0,0,-255,0,-255,0,0,0,0,33.7,13.05,4.39785,8.65215
597,92,0,3.27247,33.2,0,274,0,0.00000000,0.00000000,0,0,-255,0,-255,0,0,0,0,33.7,13.05,4.39785,8.65215
598,91,0,3.28184,33.2046,0,274,0,0.00000000,0.00000000,0,0,-255,0,-255,0,0,0,0,34,13.06,4.4404,8.6196
599,91,0,3.29121,33.2121,0,275,0,0.00000000,0.00000000,0,0,-255,0,-255,0,0,0,0,34,13.06,4.4404,8.6196
600,92,0,3.30055,33.2187,0,274,0,0.00000000,0.00000000,0,0,-255,0,-255,0,0,0,0,34.5,13.06,4.5057,8.5543
601,92,0,3.30993,33.2199,0,275,0,0.00000000,0.00000000,0,0,-255,0,-255,0,0,0,0,35.2,13.06,4.59712,8.46288
602,92,0,3.31929,33.229,0,277,0,0.00000000,0.00000000,0,0,-255,0,-255,0,0,0,0,35.2,13.06,4.59712,8.46288
603,92,0,3.32869,33.2404,0,276,0,0.00000000,0.00000000,0,0,-255,0,-255,0,0,0,0,34.9,13.06,4.55794,8.50206
604,92,0,3.33806,33.2554,0,287,0,0.00000000,0.00000000,0,0,-255,0,-255,0,0,0,0,34.9,13.06,4.55794,8.50206
605,94,0,3.34746,33.3564,0,298,0,0.00000000,0.00000000,0,0,-255,0,-255,0,0,0,0,34.9,13.06,4.55794,8.50206
606,93,0,3.35688,33.4612,0,300,0,0.00000000,0.00000000,0,0,-255,0,-255,0,0,0,0,34.4,13.06,4.49264,8.56736
607,92,0,3.36636,33.5571,0,299,0,0.00000000,0.00000000,0,0,-255,0,-255,0,0,0,0,34.4,13.06,4.49264,8.56736
608,92,0,3.37581,33.6425,0,301,0,0.00000000,0.00000000,0,0,-255,0,-255,0,0,0,0,34.4,13.06,4.49264,8.56736
609,93,0,3.38531,33.7182,0,298,0,0.00000000,0.00000000,0,0,-255,0,-255,0,0,0,0,33.8,13.06,4.41428,8.64572
610,93,0,3.39294,33.7663,0,298,0,0.00000000,0.00000000,0,0,-255,0,-255,0,0,0,0,33.8,13.06,4.41428,8.64572
611,92,0,3.40248,33.8273,0,300,0,0.00000000,0.00000000,0,0,-255,0,-255,0,0,0,0,32.7,13.06,4.27062,8.78938
612,92,0,3.41204,33.8841,0,298,0,0.00000000,0.00000000,0,0,-255,0,-255,0,0,0,0,32.7,13.06,4.27062,8.78938
613,91,0,3.42158,33.9319,0,300,0,0.00000000,0.00000000,0,0,-255,0,-255,0,0,0,0,31.8,13.06,4.15308,8.90692
614,91,0,3.43117,33.9787,0,301,0,0.00000000,0.00000000,0,0,-255,0,-255,0,0,0,0,31.8,13.06,4.15308,8.90692
615,91,0,3.44076,34.0245,0,301,0,0.00000000,0.00000000,0,0,-255,0,-255,0,0,0,0,31.4,13.06,4.10084,8.95916
616,92,0,3.45036,34.0562,0,298,0,0.00000000,0.00000000,0,0,-255,0,-255,0,0,0,0,31.4,13.06,4.10084,8.95916
617,92,0,3.45997,34.0826,0,300,0,0.00000000,0.00000000,0,0,-255,0,-255,0,0,0,0,30.6,13.07,3.99942,9.07058
618,91,0,3.46959,34.1114,0,300,0,0.00000000,0.00000000,0,0,-255,0,-255,0,0,0,0,30.6,13.07,3.99942,9.07058
619,92,0,3.47924,34.1371,0,300,0,0.00000000,0.00000000,0,0,-255,0,-255,0,0,0,0,30.6,13.07,3.99942,9.07058
620,92,0,3.48888,34.16,0,300,0,0.00000000,0.00000000,0,0,-255,0,-255,0,0,0,0,30.1,13.07,3.93407,9.13593
621,92,0,3.4985,34.1747,0,298,0,0.00000000,0.00000000,0,0,-255,0,-255,0,0,0,0,30.1,13.07,3.93407,9.13593
622,91,0,3.50813,34.1912,0,299,0,0.00000000,0.00000000,0,0,-255,0,-255,0,0,0,0,30,13.07,3.921,9.149
623,90,0,3.51585,34.2038,0,299,0,0.00000000,0.00000000,0,0,-255,0,-255,0,0,0,0,30,13.07,3.921,9.149
624,91,0,3.52553,34.2102,0,299,0,0.00000000,0.00000000,0,0,-255,0,-255,0,0,0,0,30.4,13.07,3.97328,9.09672
625,90,0,3.53518,34.2264,0,300,0,0.00000000,0.00000000,0,0,-255,0,-255,0,0,0,0,30.2,13.07,3.94714,9.12286
626,90,0,3.54483,34.2371,0,299,0,0.00000000,0.00000000,0,0,-255,0,-255,0,0,0,0,30.2,13.07,3.94714,9.12286
627,90,0,3.55447,34.2457,0,300,0,0.00000000,0.00000000,0,0,-255,0,-255,0,0,0,0,29.7,13.07,3.88179,9.18821
628,88,0,3.56415,34.2599,0,301,0,0.00000000,0.00000000,0,0,-255,0,-255,0,0,0,0,29.7,13.07,3.88179,9.18821
629,90,0,3.57379,34.2787,0,300,0,0.00000000,0.00000000,0,0,-255,0,-255,0,0,0,0,28.7,13.07,3.75109,9.31891
630,92,0,3.58348,34.2837,0,299,0,0.00000000,0.00000000,0,0,-255,0,-255,0,0,0,0,28.7,13.07,3.75109,9.31891
631,92,0,3.59314,34.2841,0,299,0,0.00000000,0.00000000,0,0,-255,0,-255,0,0,0,0,27.7,13.07,3.62039,9.44961
632,91,0,3.60282,34.3371,0,319,0,0.00000000,0.00000000,0,0,-255,0,-255,0,0,0,0,27.7,13.07,3.62039,9.44961
633,90,0,3.61253,34.4508,0,327,0,0.00000000,0.00000000,0,0,-255,0,-255,0,0,0,0,27.7,13.07,3.62039,9.44961
634,92,0,3.62229,34.5542,0,323,0,0.00000000,0.00000000,0,0,-255,0,-255,0,0,0,0,26.9,13.07,3.51583,9.55417
635,92,0,3.63202,34.6376,0,325,0,0.00000000,0.00000000,0,0,-255,0,-255,0,0,0,0,26.3,13.07,3.43741,9.63259
636,91,0,3.63986,34.7013,0,324,0,0.00000000,0.00000000,0,0,-255,0,-255,0,0,0,0,26.3,13.07,3.43741,9.63259
637,91,0,3.64965,34.7737,0,326,0,0.00000000,0.00000000,0,0,-255,0,-255,0,0,0,0,25.8,13.07,3.37206,9.69794
638,91,0,3.65946,34.841,0,325,0,0.00000000,0.00000000,0,0,-255,0,-255,0,0,0,0,25.8,13.07,3.37206,9.69794
639,92,0,3.66934,34.8961,0,325,0,0.00000000,0.00000000,0,0,-255,0,-255,0,0,0,0,25.1,13.07,3.28057,9.78943
640,92,0,3.67915,34.9482,0,325,0,0.00000000,0.00000000,0,0,-255,0,-255,0,0,0,0,25.1,13.07,3.28057,9.78943
641,92,0,3.68903,34.9968,0,324,0,0.00000000,0.00000000,0,0,-255,0,-255,0,0,0,0,24.9,13.07,3.25443,9.81557
642,93,0,3.69889,35.0328,0,323,0,0.00000000,0.00000000,0,0,-255,0,-255,0,0,0,0,24.9,13.07,3.25443,9.81557
643,92,0,3.70878,35.0684,0,326,0,0.00000000,0.00000000,0,0,-255,0,-255,0,0,0,0,24.6,13.07,3.21522,9.85478
644,92,0,3.7187,35.1021,0,324,0,0.00000000,0.00000000,0,0,-255,0,-255,0,0,0,0,24.6,13.07,3.21522,9.85478
645,93,0,3.72859,35.1295,0,326,0,0.00000000,0.00000000,0,0,-255,0,-255,0,0,0,0,24.2,13.07,3.16294,9.90706
646,93,0,3.73853,35.1594,0,325,0,0.00000000,0.00000000,0,0,-255,0,-255,0,0,0,0,24.2,13.07,3.16294,9.90706
647,94,0,3.74846,35.1792,0,323,0,0.00000000,0.00000000,0,0,-255,0,-255,0,0,0,0,23.7,13.07,3.09759,9.97241
648,92,0,3.75836,35.1929,0,324,0,0.00000000,0.00000000,0,0,-255,0,-255,0,0,0,0,23.7,13.07,3.09759,9.97241
649,92,0,3.76631,35.2046,0,324,0,0.00000000,0.00000000,0,0,-255,0,-255,0,0,0,0,23.3,13.08,3.04764,10.0324
650,92,0,3.77626,35.219,0,325,0,0.00000000,0.00000000,0,0,-255,0,-255,0,0,0,0,23.3,13.08,3.04764,10.0324
651,93,0,3.78618,35.2277,0,323,0,0.00000000,0.00000000,0,0,-255,0,-255,0,0,0,0,22.9,13.08,2.99532,10.0847
652,92,0,3.79615,35.2342,0,324,0,0.00000000,0.00000000,0,0,-255,0,-255,0,0,0,0,22.9,13.08,2.99532,10.0847
653,91,0,3.80605,35.247,0,325,0,0.00000000,0.00000000,0,0,-255,0,-255,0,0,0,0,22.4,13.08,2.92992,10.1501
654,91,0,3.816,35.2557,0,324,0,0.00000000,0.00000000,0,0,-255,0,-255,0,0,0,0,22.4,13.08,2.92992,10.1501
655,92,0,3.82596,35.263,0,324,0,0.00000000,0.00000000,0,0,-255,0,-255,0,0,0,0,22,13.08,2.8776,10.2024
656,92,0,3.83591,35.2709,0,325,0,0.00000000,0.00000000,0,0,-255,0,-255,0,0,0,0,22,13.08,2.8776,10.2024
657,92,0,3.84587,35.2809,0,325,0,0.00000000,0.00000000,0,0,-255,0,-255,0,0,0,0,22.1,13.08,2.89068,10.1893
658,92,0,3.85581,35.2929,0,326,0,0.00000000,0.00000000,0,0,-255,0,-255,0,0,0,0,22.1,13.08,2.89068,10.1893
659,93,0,3.86579,35.3044,0,325,0,0.00000000,0.00000000,0,0,-255,0,-255,0,0,0,0,23,13.08,3.0084,10.0716
660,94,0,3.87571,35.307,0,321,0,0.00000000,0.00000000,0,0,-255,0,-255,0,0,0,0,23,13.08,3.0084,10.0716
661,92,0,3.88568,35.3039,0,332,0,0.00000000,0.00000000,0,0,-255,0,-255,0,0,0,0,23.4,13.08,3.06072,10.0193
662,92,0,3.89368,35.3445,0,344,0,0.00000000,0.00000000,0,0,-255,0,-255,0,0,0,0,23.4,13.08,3.06072,10.0193
663,92,0,3.90364,35.4641,0,352,0,0.00000000,0.00000000,0,0,-255,0,-255,0,0,0,0,23.7,13.08,3.09996,9.98004
664,94,0,3.91367,35.5618,0,349,0,0.00000000,0.00000000,0,0,-255,0,-255,0,0,0,0,23.7,13.08,3.09996,9.98004
665,93,0,3.92371,35.6363,0,347,0,0.00000000,0.00000000,0,0,-255,0,-255,0,0,0,0,23.5,13.08,3.0738,10.0062
666,92,0,3.93379,35.7079,0,349,0,0.00000000,0.00000000,0,0,-255,0,-255,0,0,0,0,23.5,13.08,3.0738,10.0062
667,92,0,3.94385,35.7765,0,350,0,0.00000000,0.00000000,0,0,-255,0,-255,0,0,0,0,23.5,13.08,3.0738,10.0062
668,92,0,3.95396,35.8386,0,350,0,0.00000000,0.00000000,0,0,-255,0,-255,0,0,0,0,23.1,13.08,3.02148,10.0585
669,93,0,3.96408,35.8935,0,350,0,0.00000000,0.00000000,0,0,-255,0,-255,0,0,0,0,22.7,13.08,2.96916,10.1108
670,93,0,3.97421,35.9398,0,349,0,0.00000000,0.00000000,0,0,-255,0,-255,0,0,0,0,22.7,13.08,2.96916,10.1108
671,93,0,3.98436,35.9792,0,350,0,0.00000000,0.00000000,0,0,-255,0,-255,0,0,0,0,21.8,13.08,2.85144,10.2286
672,93,0,3.99452,36.0156,0,347,0,0.00000000,0.00000000,0,0,-255,0,-255,0,0,0,0,21.8,13.08,2.85144,10.2286
673,92,0,4.00468,36.0447,0,352,0,0.00000000,0.00000000,0,0,-255,0,-255,0,0,0,0,21.8,13.08,2.85144,10.2286
674,94,0,4.01485,36.0879,0,352,0,0.00000000,0.00000000,0,0,-255,0,-255,0,0,0,0,20.9,13.08,2.73372,10.3463
675,94,0,4.023,36.1116,0,348,0,0.00000000,0.00000000,0,0,-255,0,-255,0,0,0,0,20.1,13.08,2.62908,10.4509
676,96,0,4.0332,36.1309,0,350,0,0.00000000,0.00000000,0,0,-255,0,-255,0,0,0,0,20.1,13.08,2.62908,10.4509
677,96,0,4.04341,36.1459,0,348,0,0.00000000,0.00000000,0,0,-255,0,-255,0,0,0,0,19.2,13.08,2.51136,10.5686
678,95,0,4.05361,36.1612,0,350,0,0.00000000,0.00000000,0,0,-255,0,-255,0,0,0,0,19.2,13.08,2.51136,10.5686
679,94,0,4.06379,36.1788,0,350,0,0.00000000,0.00000000,0,0,-255,0,-255,0,0,0,0,18.1,13.08,2.36748,10.7125
680,94,0,4.07399,36.1958,0,351,0,0.00000000,0.00000000,0,0,-255,0,-255,0,0,0,0,18.1,13.08,2.36748,10.7125
681,94,0,4.08421,36.208,0,348,0,0.00000000,0.00000000,0,0,-255,0,-255,0,0,0,0,17.6,13.08,2.30208,10.7779
682,94,0,4.09444,36.2161,0,350,0,0.00000000,0.00000000,0,0,-255,0,-255,0,0,0,0,17.6,13.08,2.30208,10.7779
683,94,0,4.10466,36.2261,0,349,0,0.00000000,0.00000000,0,0,-255,0,-255,0,0,0,0,17.6,13.08,2.30208,10.7779
684,93,0,4.11486,36.2319,0,349,0,0.00000000,0.00000000,0,0,-255,0,-255,0,0,0,0,17.3,13.08,2.26284,10.8172
685,94,0,4.12507,36.2375,0,348,0,0.00000000,0.00000000,0,0,-255,0,-255,0,0,0,0,16.8,13.08,2.19744,10.8826
686,93,0,4.13533,36.2469,0,351,0,0.00000000,0.00000000,0,0,-255,0,-255,0,0,0,0,16.8,13.08,2.19744,10.8826
687,93,0,4.14555,36.2563,0,349,0,0.00000000,0.00000000,0,0,-255,0,-255,0,0,0,0,16.8,13.08,2.19744,10.8826
688,94,0,4.15372,36.2578,0,348,0,0.00000000,0.00000000,0,0,-255,0,-255,0,0,0,0,16.8,13.08,2.19744,10.8826
689,92,0,4.16396,36.2614,0,351,0,0.00000000,0.00000000,0,0,-255,0,-255,0,0,0,0,16.8,13.08,2.19744,10.8826
690,94,0,4.17421,36.2687,0,348,0,0.00000000,0.00000000,0,0,-255,0,-255,0,0,0,0,16.6,13.09,2.17294,10.9171
691,93,0,4.18443,36.2676,0,349,0,0.00000000,0.00000000,0,0,-255,0,-255,0,0,0,0,16.4,13.09,2.14676,10.9432
692,93,0,4.19466,36.3068,0,367,0,0.00000000,0.00000000,0,0,-255,0,-255,0,0,0,0,16.4,13.09,2.14676,10.9432
693,92,0,4.2049,36.412,0,376,0,0.00000000,0.00000000,0,0,-255,0,-255,0,0,0,0,16.2,13.09,2.12058,10.9694
694,92,0,4.21519,36.5153,0,372,0,0.00000000,0.00000000,0,0,-255,0,-255,0,0,0,0,16.2,13.09,2.12058,10.9694
695,94,0,4.22552,36.587,0,374,0,0.00000000,0.00000000,0,0,-255,0,-255,0,0,0,0,16.1,13.09,2.10749,10.9825
696,93,0,4.23586,36.6609,0,375,0,0.00000000,0.00000000,0,0,-255,0,-255,0,0,0,0,16.1,13.09,2.10749,10.9825
697,93,0,4.24619,36.7292,0,374,0,0.00000000,0.00000000,0,0,-255,0,-255,0,0,0,0,16,13.09,2.0944,10.9956
698,93,0,4.25657,36.7821,0,375,0,0.00000000,0.00000000,0,0,-255,0,-255,0,0,0,0,16,13.09,2.0944,10.9956
699,92,0,4.26697,36.8338,0,374,0,0.00000000,0.00000000,0,0,-255,0,-255,0,0,0,0,16,13.09,2.0944,10.9956
700,93,0,4.27737,36.8823,0,374,0,0.00000000,0.00000000,0,0,-255,0,-255,0,0,0,0,15.6,13.09,2.04204,11.048
701,93,0,4.28569,36.9114,0,374,0,0.00000000,0.00000000,0,0,-255,0,-255,0,0,0,0,15.3,13.09,2.00277,11.0872
702,92,0,4.29609,36.9406,0,374,0,0.00000000,0.00000000,0,0,-255,0,-255,0,0,0,0,15.3,13.09,2.00277,11.0872
703,92,0,4.30652,36.977,0,377,0,0.00000000,0.00000000,0,0,-255,0,-255,0,0,0,0,14.7,13.09,1.92423,11.1658
704,92,0,4.31697,37.0055,0,374,0,0.00000000,0.00000000,0,0,-255,0,-255,0,0,0,0,14.7,13.09,1.92423,11.1658
705,93,0,4.32741,37.027,0,374,0,0.00000000,0.00000000,0,0,-255,0,-255,0,0,0,0,14.7,13.09,1.92423,11.1658
706,93,0,4.33783,37.0484,0,374,0,0.00000000,0.00000000,0,0,-255,0,-255,0,0,0,0,14.3,13.09,1.87187,11.2181
707,92,0,4.34829,37.0699,0,374,0,0.00000000,0.00000000,0,0,-255,0,-255,0,0,0,0,14.3,13.09,1.87187,11.2181
708,93,0,4.35876,37.0855,0,374,0,0.00000000,0.00000000,0,0,-255,0,-255,0,0,0,0,13.7,13.09,1.79333,11.2967
709,92,0,4.36924,37.0976,0,374,0,0.00000000,0.00000000,0,0,-255,0,-255,0,0,0,0,13.5,13.09,1.76715,11.3228
710,93,0,4.37969,37.1108,0,376,0,0.00000000,0.00000000,0,0,-255,0,-255,0,0,0,0,13.5,13.09,1.76715,11.3228
711,93,0,4.39016,37.1261,0,375,0,0.00000000,0.00000000,0,0,-255,0,-255,0,0,0,0,13.2,13.08,1.72656,11.3534
712,94,0,4.40066,37.1376,0,375,0,0.00000000,0.00000000,0,0,-255,0,-255,0,0,0,0,13.2,13.08,1.72656,11.3534
713,93,0,4.41111,37.1464,0,374,0,0.00000000,0.00000000,0,0,-255,0,-255,0,0,0,0,13.1,13.08,1.71348,11.3665
714,93,0,4.4195,37.1507,0,375,0,0.00000000,0.00000000,0,0,-255,0,-255,0,0,0,0,13.1,13.08,1.71348,11.3665
715,94,0,4.43001,37.1533,0,373,0,0.00000000,0.00000000,0,0,-255,0,-255,0,0,0,0,13.1,13.08,1.71348,11.3665
716,93,0,4.44046,37.1569,0,374,0,0.00000000,0.00000000,0,0,-255,0,-255,0,0,0,0,13.1,13.08,1.71348,11.3665
717,93,0,4.45095,37.1635,0,375,0,0.00000000,0.00000000,0,0,-255,0,-255,0,0,0,0,13.2,13.08,1.72656,11.3534
718,92,0,4.46146,37.1651,0,376,0,0.00000000,0.00000000,0,0,-255,0,-255,0,0,0,0,13.2,13.08,1.72656,11.3534
719,91,0,4.47196,37.1767,0,377,0,0.00000000,0.00000000,0,0,-255,0,-255,0,0,0,0,13.2,13.08,1.72656,11.3534
720,93,0,4.4824,37.1918,0,376,0,0.00000000,0.00000000,0,0,-255,0,-255,0,0,0,0,13,13.07,1.6991,11.3709
721,95,0,4.4929,37.1988,0,380,0,0.00000000,0.00000000,0,0,-255,0,-255,0,0,0,0,13,13.07,1.6991,11.3709
722,96,0,4.50341,37.2586,0,400,0,0.00000000,0.00000000,0,0,-255,0,-255,0,0,0,0,13.1,13.08,1.71348,11.3665
723,96,0,4.51395,37.3568,0,397,0,0.00000000,0.00000000,0,0,-255,0,-255,0,0,0,0,13.3,13.08,1.73964,11.3404
724,95,0,4.52448,37.433,0,396,0,0.00000000,0.00000000,0,0,-255,0,-255,0,0,0,0,13.3,13.08,1.73964,11.3404
725,94,0,4.53504,37.4912,0,397,0,0.00000000,0.00000000,0,0,-255,0,-255,0,0,0,0,13.3,13.08,1.73964,11.3404
726,94,0,4.54565,37.564,0,400,0,0.00000000,0.00000000,0,0,-255,0,-255,0,0,0,0,13.2,13.08,1.72656,11.3534
727,94,0,4.55412,37.6095,0,398,0,0.00000000,0.00000000,0,0,-255,0,-255,0,0,0,0,13.2,13.08,1.72656,11.3534
728,93,0,4.56476,37.6669,0,400,0,0.00000000,0.00000000,0,0,-255,0,-255,0,0,0,0,13.2,13.08,1.72656,11.3534
729,93,0,4.5754,37.718,0,400,0,0.00000000,0.00000000,0,0,-255,0,-255,0,0,0,0,13,13.08,1.7004,11.3796
730,93,0,4.58605,37.7621,0,398,0,0.00000000,0.00000000,0,0,-255,0,-255,0,0,0,0,13,13.08,1.7004,11.3796
731,93,0,4.5967,37.7987,0,402,0,0.00000000,0.00000000,0,0,-255,0,-255,0,0,0,0,12.8,13.08,1.67424,11.4058
732,93,0,4.60735,37.8362,0,400,0,0.00000000,0.00000000,0,0,-255,0,-255,0,0,0,0,12.8,13.08,1.67424,11.4058
733,93,0,4.61802,37.8648,0,395,0,0.00000000,0.00000000,0,0,-255,0,-255,0,0,0,0,12.3,13.07,1.60761,11.4624
734,92,0,4.62872,37.8728,0,396,0,0.00000000,0.00000000,0,0,-255,0,-255,0,0,0,0,12.3,13.07,1.60761,11.4624
735,93,0,4.63938,37.9001,0,404,0,0.00000000,0.00000000,0,0,-255,0,-255,0,0,0,0,12.3,13.08,1.60884,11.4712
736,93,0,4.65009,37.9337,0,402,0,0.00000000,0.00000000,0,0,-255,0,-255,0,0,0,0,12.3,13.08,1.60884,11.4712
737,94,0,4.66083,37.9477,0,398,0,0.00000000,0.00000000,0,0,-255,0,-255,0,0,0,0,12.3,13.08,1.60884,11.4712
738,94,0,4.67152,37.9568,0,398,0,0.00000000,0.00000000,0,0,-255,0,-255,0,0,0,0,12,13.07,1.5684,11.5016
739,92,0,4.68222,37.9722,0,400,0,0.00000000,0.00000000,0,0,-255,0,-255,0,0,0,0,11.9,13.07,1.55533,11.5147
740,93,0,4.69079,37.9855,0,400,0,0.00000000,0.00000000,0,0,-255,0,-255,0,0,0,0,11.9,13.07,1.55533,11.5147
741,93,0,4.70151,37.9982,0,400,0,0.00000000,0.00000000,0,0,-255,0,-255,0,0,0,0,11.7,13.07,1.52919,11.5408
742,94,0,4.71222,38.0086,0,398,0,0.00000000,0.00000000,0,0,-255,0,-255,0,0,0,0,11.7,13.07,1.52919,11.5408
743,94,0,4.72298,38.0146,0,400,0,0.00000000,0.00000000,0,0,-255,0,-255,0,0,0,0,11.8,13.07,1.54226,11.5277
744,94,0,4.73368,38.0238,0,400,0,0.00000000,0.00000000,0,0,-255,0,-255,0,0,0,0,11.8,13.07,1.54226,11.5277
745,94,0,4.74439,38.032,0,400,0,0.00000000,0.00000000,0,0,-255,0,-255,0,0,0,0,11.8,13.07,1.54226,11.5277
746,94,0,4.75516,38.0391,0,400,0,0.00000000,0.00000000,0,0,-255,0,-255,0,0,0,0,11.8,13.07,1.54226,11.5277
747,94,0,4.76587,38.0454,0,400,0,0.00000000,0.00000000,0,0,-255,0,-255,0,0,0,0,11.8,13.07,1.54226,11.5277
748,94,0,4.77659,38.0451,0,398,0,0.00000000,0.00000000,0,0,-255,0,-255,0,0,0,0,11.8,13.07,1.54226,11.5277
749,93,0,4.78736,38.0483,0,400,0,0.00000000,0.00000000,0,0,-255,0,-255,0,0,0,0,11.8,13.07,1.54226,11.5277
750,93,0,4.7981,38.0472,0,397,0,0.00000000,0.00000000,0,0,-255,0,-255,0,0,0,0,11.8,13.07,1.54226,11.5277
751,93,0,4.80881,38.0482,0,400,0,0.00000000,0.00000000,0,0,-255,0,-255,0,0,0,0,11.8,13.07,1.54226,11.5277
752,93,0,4.81954,38.0666,0,404,0,0.00000000,0.00000000,0,0,-255,0,-255,0,0,0,0,11.9,13.07,1.55533,11.5147
753,93,0,4.82814,38.0781,0,402,0,0.00000000,0.00000000,0,0,-255,0,-255,0,0,0,0,11.8,13.07,1.54226,11.5277
754,95,0,4.83889,38.0857,0,406,0,0.00000000,0.00000000,0,0,-255,0,-255,0,0,0,0,11.8,13.07,1.54226,11.5277
755,94,0,4.84963,38.1493,0,422,0,0.00000000,0.00000000,0,0,-255,0,-255,0,0,0,0,11.9,13.08,1.55652,11.5235
756,93,0,4.86039,38.2404,0,426,0,0.00000000,0.00000000,0,0,-255,0,-255,0,0,0,0,11.9,13.08,1.55652,11.5235
757,93,0,4.87123,38.324,0,423,0,0.00000000,0.00000000,0,0,-255,0,-255,0,0,0,0,11.9,13.08,1.55652,11.5235
758,93,0,4.88204,38.3915,0,424,0,0.00000000,0.00000000,0,0,-255,0,-255,0,0,0,0,12.1,13.08,1.58268,11.4973
759,91,0,4.89286,38.4505,0,423,0,0.00000000,0.00000000,0,0,-255,0,-255,0,0,0,0,12.1,13.08,1.58268,11.4973
760,92,0,4.90371,38.5058,0,424,0,0.00000000,0.00000000,0,0,-255,0,-255,0,0,0,0,12.1,13.08,1.58268,11.4973
761,93,0,4.91459,38.5503,0,425,0,0.00000000,0.00000000,0,0,-255,0,-255,0,0,0,0,11.8,13.08,1.54344,11.5366
762,93,0,4.92548,38.599,0,426,0,0.00000000,0.00000000,0,0,-255,0,-255,0,0,0,0,11.8,13.08,1.54344,11.5366
763,93,0,4.93636,38.6407,0,425,0,0.00000000,0.00000000,0,0,-255,0,-255,0,0,0,0,11.7,13.08,1.53036,11.5496
764,92,0,4.9473,38.6726,0,424,0,0.00000000,0.00000000,0,0,-255,0,-255,0,0,0,0,11.7,13.08,1.53036,11.5496
765,93,0,4.95821,38.7026,0,424,0,0.00000000,0.00000000,0,0,-255,0,-255,0,0,0,0,11.7,13.08,1.53036,11.5496
766,93,0,4.96693,38.7217,0,425,0,0.00000000,0.00000000,0,0,-255,0,-255,0,0,0,0,11.5,13.08,1.5042,11.5758
767,93,0,4.97786,38.746,0,424,0,0.00000000,0.00000000,0,0,-255,0,-255,0,0,0,0,11.1,13.08,1.45188,11.6281
768,93,0,4.98881,38.7731,0,432,0,0.00000000,0.00000000,0,0,-255,0,-255,0,0,0,0,11.1,13.08,1.45188,11.6281
769,95,0,4.99973,38.8129,0,426,0,0.00000000,0.00000000,0,0,-255,0,-255,0,0,0,0,10.8,13.07,1.41156,11.6584
770,97,0,5.01073,38.8247,0,424,0,0.00000000,0.00000000,0,0,-255,0,-255,0,0,0,0,10.8,13.07,1.41156,11.6584
771,96,0,5.02163,38.8279,0,422,0,0.00000000,0.00000000,0,0,-255,0,-255,0,0,0,0,10.9,13.07,1.42463,11.6454
772,94,0,5.03259,38.828,0,423,0,0.00000000,0.00000000,0,0,-255,0,-255,0,0,0,0,10.9,13.07,1.42463,11.6454
773,94,0,5.04355,38.8348,0,423,0,0.00000000,0.00000000,0,0,-255,0,-255,0,0,0,0,10.8,13.07,1.41156,11.6584
774,94,0,5.05451,38.8405,0,424,0,0.00000000,0.00000000,0,0,-255,0,-255,0,0,0,0,10.8,13.07,1.41156,11.6584
775,95,0,5.06545,38.8567,0,425,0,0.00000000,0.00000000,0,0,-255,0,-255,0,0,0,0,10.7,13.07,1.39849,11.6715
776,95,0,5.07644,38.8628,0,424,0,0.00000000,0.00000000,0,0,-255,0,-255,0,0,0,0,10.7,13.07,1.39849,11.6715
777,95,0,5.08742,38.8699,0,427,0,0.00000000,0.00000000,0,0,-255,0,-255,0,0,0,0,10.6,13.07,1.38542,11.6846
778,95,0,5.09838,38.8787,0,425,0,0.00000000,0.00000000,0,0,-255,0,-255,0,0,0,0,10.6,13.07,1.38542,11.6846
779,94,0,5.10713,38.8823,0,425,0,0.00000000,0.00000000,0,0,-255,0,-255,0,0,0,0,10.6,13.07,1.38542,11.6846
780,95,0,5.11812,38.8873,0,425,0,0.00000000,0.00000000,0,0,-255,0,-255,0,0,0,0,10.6,13.07,1.38542,11.6846
781,95,0,5.12909,38.8909,0,425,0,0.00000000,0.00000000,0,0,-255,0,-255,0,0,0,0,10.5,13.07,1.37235,11.6976
782,95,0,5.14007,38.9307,0,444,0,0.00000000,0.00000000,0,0,-255,0,-255,0,0,0,0,10.5,13.07,1.37235,11.6976
783,95,0,5.15105,39.0235,0,450,0,0.00000000,0.00000000,0,0,-255,0,-255,0,0,0,0,10.6,13.07,1.38542,11.6846
784,95,0,5.1621,39.1098,0,449,0,0.00000000,0.00000000,0,0,-255,0,-255,0,0,0,0,10.6,13.07,1.38542,11.6846
785,95,0,5.17312,39.1799,0,449,0,0.00000000,0.00000000,0,0,-255,0,-255,0,0,0,0,10.8,13.07,1.41156,11.6584
786,94,0,5.18416,39.2384,0,448,0,0.00000000,0.00000000,0,0,-255,0,-255,0,0,0,0,10.8,13.07,1.41156,11.6584
787,94,0,5.19525,39.2964,0,451,0,0.00000000,0.00000000,0,0,-255,0,-255,0,0,0,0,10.9,13.07,1.42463,11.6454
788,94,0,5.20636,39.3529,0,451,0,0.00000000,0.00000000,0,0,-255,0,-255,0,0,0,0,10.9,13.07,1.42463,11.6454
789,93,0,5.21746,39.3974,0,449,0,0.00000000,0.00000000,0,0,-255,0,-255,0,0,0,0,10.7,13.07,1.39849,11.6715
790,95,0,5.22857,39.4369,0,450,0,0.00000000,0.00000000,0,0,-255,0,-255,0,0,0,0,10.7,13.07,1.39849,11.6715
791,95,0,5.23971,39.4718,0,450,0,0.00000000,0.00000000,0,0,-255,0,-255,0,0,0,0,10.7,13.07,1.39849,11.6715
792,94,0,5.24861,39.4947,0,448,0,0.00000000,0.00000000,0,0,-255,0,-255,0,0,0,0,10.7,13.07,1.39849,11.6715
793,94,0,5.25977,39.5145,0,448,0,0.00000000,0.00000000,0,0,-255,0,-255,0,0,0,0,10.7,13.07,1.39849,11.6715
794,94,0,5.27091,39.5402,0,451,0,0.00000000,0.00000000,0,0,-255,0,-255,0,0,0,0,10.6,13.07,1.38542,11.6846
795,94,0,5.28206,39.564,0,448,0,0.00000000,0.00000000,0,0,-255,0,-255,0,0,0,0,10.6,13.07,1.38542,11.6846
796,94,0,5.29323,39.5752,0,450,0,0.00000000,0.00000000,0,0,-255,0,-255,0,0,0,0,10.2,13.06,1.33212,11.7279
797,94,0,5.30439,39.5939,0,449,0,0.00000000,0.00000000,0,0,-255,0,-255,0,0,0,0,9.8,13.07,1.28086,11.7891
798,93,0,5.31557,39.6097,0,452,0,0.00000000,0.00000000,0,0,-255,0,-255,0,0,0,0,9.8,13.07,1.28086,11.7891
799,93,0,5.32674,39.6221,0,448,0,0.00000000,0.00000000,0,0,-255,0,-255,0,0,0,0,9.8,13.07,1.28086,11.7891
800,92,0,5.33792,39.6328,0,451,0,0.00000000,0.00000000,0,0,-255,0,-255,0,0,0,0,9.8,13.07,1.28086,11.7891
801,93,0,5.34912,39.6459,0,450,0,0.00000000,0.00000000,0,0,-255,0,-255,0,0,0,0,9.8,13.07,1.28086,11.7891
802,94,0,5.3603,39.6546,0,450,0,0.00000000,0.00000000,0,0,-255,0,-255,0,0,0,0,9.9,13.07,1.29393,11.7761
803,94,0,5.37152,39.6587,0,449,0,0.00000000,0.00000000,0,0,-255,0,-255,0,0,0,0,9.5,13.07,1.24165,11.8284
804,93,0,5.38269,39.6712,0,452,0,0.00000000,0.00000000,0,0,-255,0,-255,0,0,0,0,9.5,13.07,1.24165,11.8284
805,93,0,5.39163,39.6774,0,449,0,0.00000000,0.00000000,0,0,-255,0,-255,0,0,0,0,9.5,13.07,1.24165,11.8284
806,95,0,5.40283,39.6822,0,449,0,0.00000000,0.00000000,0,0,-255,0,-255,0,0,0,0,9.6,13.07,1.25472,11.8153
807,95,0,5.41402,39.6841,0,449,0,0.00000000,0.00000000,0,0,-255,0,-255,0,0,0,0,9.9,13.07,1.29393,11.7761
808,94,0,5.42521,39.6845,0,448,0,0.00000000,0.00000000,0,0,-255,0,-255,0,0,0,0,9.9,13.07,1.29393,11.7761
809,94,0,5.43644,39.6826,0,449,0,0.00000000,0.00000000,0,0,-255,0,-255,0,0,0,0,10.1,13.08,1.32108,11.7589
810,93,0,5.44763,39.6886,0,453,0,0.00000000,0.00000000,0,0,-255,0,-255,0,0,0,0,10.1,13.08,1.32108,11.7589
811,94,0,5.45881,39.6976,0,446,0,0.00000000,0.00000000,0,0,-255,0,-255,0,0,0,0,10.1,13.08,1.32108,11.7589
812,94,0,5.47,39.6962,0,452,0,0.00000000,0.00000000,0,0,-255,0,-255,0,0,0,0,10.1,13.08,1.32108,11.7589
813,95,0,5.4812,39.7013,0,449,0,0.00000000,0.00000000,0,0,-255,0,-255,0,0,0,0,10.3,13.08,1.34724,11.7328
814,95,0,5.4924,39.7536,0,473,0,0.00000000,0.00000000,0,0,-255,0,-255,0,0,0,0,10.3,13.08,1.34724,11.7328
815,93,0,5.50365,39.8535,0,479,0,0.00000000,0.00000000,0,0,-255,0,-255,0,0,0,0,10.3,13.08,1.34724,11.7328
816,96,0,5.51493,39.9437,0,473,0,0.00000000,0.00000000,0,0,-255,0,-255,0,0,0,0,10.3,13.08,1.34724,11.7328
817,96,0,5.5262,40.0073,0,475,0,0.00000000,0.00000000,0,0,-255,0,-255,0,0,0,0,10.1,13.08,1.32108,11.7589
818,96,0,5.5352,40.0559,0,474,0,0.00000000,0.00000000,0,0,-255,0,-255,0,0,0,0,10.1,13.08,1.32108,11.7589
819,95,0,5.54652,40.1051,0,474,0,0.00000000,0.00000000,0,0,-255,0,-255,0,0,0,0,10.1,13.08,1.32108,11.7589
820,93,0,5.55785,40.1513,0,476,0,0.00000000,0.00000000,0,0,-255,0,-255,0,0,0,0,10,13.08,1.308,11.772
821,94,0,5.56919,40.1948,0,473,0,0.00000000,0.00000000,0,0,-255,0,-255,0,0,0,0,10.1,13.08,1.32108,11.7589
822,94,0,5.58053,40.23,0,476,0,0.00000000,0.00000000,0,0,-255,0,-255,0,0,0,0,10.1,13.08,1.32108,11.7589
823,94,0,5.59189,40.2609,0,476,0,0.00000000,0.00000000,0,0,-255,0,-255,0,0,0,0,9.9,13.08,1.29492,11.7851
824,94,0,5.60326,40.2992,0,477,0,0.00000000,0.00000000,0,0,-255,0,-255,0,0,0,0,9.9,13.08,1.29492,11.7851
825,94,0,5.61465,40.3155,0,472,0,0.00000000,0.00000000,0,0,-255,0,-255,0,0,0,0,9.8,13.08,1.28184,11.7982
826,94,0,5.62597,40.3302,0,474,0,0.00000000,0.00000000,0,0,-255,0,-255,0,0,0,0,9.8,13.08,1.28184,11.7982
827,94,0,5.63736,40.3574,0,477,0,0.00000000,0.00000000,0,0,-255,0,-255,0,0,0,0,9.8,13.08,1.28184,11.7982
828,94,0,5.64877,40.3752,0,475,0,0.00000000,0.00000000,0,0,-255,0,-255,0,0,0,0,9.8,13.08,1.28184,11.7982
829,95,0,5.66014,40.3854,0,475,0,0.00000000,0.00000000,0,0,-255,0,-255,0,0,0,0,10,13.08,1.308,11.772
830,93,0,5.67153,40.4005,0,475,0,0.00000000,0.00000000,0,0,-255,0,-255,0,0,0,0,10,13.08,1.308,11.772
831,95,0,5.6807,40.4119,0,476,0,0.00000000,0.00000000,0,0,-255,0,-255,0,0,0,0,10,13.08,1.308,11.772
832,95,0,5.69205,40.4129,0,471,0,0.00000000,0.00000000,0,0,-255,0,-255,0,0,0,0,9.7,13.08,1.26876,11.8112
833,95,0,5.70347,40.4126,0,474,0,0.00000000,0.00000000,0,0,-255,0,-255,0,0,0,0,9.7,13.08,1.26876,11.8112
834,94,0,5.71486,40.4269,0,477,0,0.00000000,0.00000000,0,0,-255,0,-255,0,0,0,0,10,13.08,1.308,11.772
835,93,0,5.72627,40.4369,0,474,0,0.00000000,0.00000000,0,0,-255,0,-255,0,0,0,0,10.3,13.09,1.34827,11.7417
836,93,0,5.73767,40.4427,0,475,0,0.00000000,0.00000000,0,0,-255,0,-255,0,0,0,0,10.3,13.09,1.34827,11.7417
837,94,0,5.7491,40.4462,0,474,0,0.00000000,0.00000000,0,0,-255,0,-255,0,0,0,0,10.3,13.08,1.34724,11.7328
838,93,0,5.76049,40.4419,0,472,0,0.00000000,0.00000000,0,0,-255,0,-255,0,0,0,0,10.3,13.08,1.34724,11.7328
839,92,0,5.77192,40.447,0,478,0,0.00000000,0.00000000,0,0,-255,0,-255,0,0,0,0,10.3,13.08,1.34724,11.7328
840,92,0,5.78332,40.4617,0,476,0,0.00000000,0.00000000,0,0,-255,0,-255,0,0,0,0,10.3,13.08,1.34724,11.7328
841,95,0,5.79475,40.4803,0,484,0,0.00000000,0.00000000,0,0,-255,0,-255,0,0,0,0,10.3,13.08,1.34724,11.7328
842,95,0,5.80617,40.5333,0,497,0,0.00000000,0.00000000,0,0,-255,0,-255,0,0,0,0,10.2,13.08,1.33416,11.7458
843,96,0,5.81762,40.6203,0,503,0,0.00000000,0.00000000,0,0,-255,0,-255,0,0,0,0,10.2,13.08,1.33416,11.7458
844,98,0,5.82683,40.6945,0,500,0,0.00000000,0.00000000,0,0,-255,0,-255,0,0,0,0,9.6,13.08,1.25568,11.8243
845,98,0,5.83828,40.7543,0,495,0,0.00000000,0.00000000,0,0,-255,0,-255,0,0,0,0,9.3,13.07,1.21551,11.8545
846,97,0,5.84978,40.8073,0,499,0,0.00000000,0.00000000,0,0,-255,0,-255,0,0,0,0,9.3,13.07,1.21551,11.8545
847,97,0,5.86132,40.855,0,494,0,0.00000000,0.00000000,0,0,-255,0,-255,0,0,0,0,9.1,13.08,1.19028,11.8897
848,96,0,5.87283,40.8869,0,499,0,0.00000000,0.00000000,0,0,-255,0,-255,0,0,0,0,9.1,13.08,1.19028,11.8897
849,94,0,5.88436,40.934,0,501,0,0.00000000,0.00000000,0,0,-255,0,-255,0,0,0,0,9.1,13.08,1.19028,11.8897
850,94,0,5.89593,40.9766,0,501,0,0.00000000,0.00000000,0,0,-255,0,-255,0,0,0,0,9,13.08,1.1772,11.9028
851,93,0,5.90748,41.009,0,499,0,0.00000000,0.00000000,0,0,-255,0,-255,0,0,0,0,9.2,13.08,1.20336,11.8766
852,94,0,5.91909,41.037,0,500,0,0.00000000,0.00000000,0,0,-255,0,-255,0,0,0,0,9.2,13.08,1.20336,11.8766
853,94,0,5.93065,41.0608,0,500,0,0.00000000,0.00000000,0,0,-255,0,-255,0,0,0,0,9.5,13.09,1.24355,11.8465
854,94,0,5.94224,41.0755,0,498,0,0.00000000,0.00000000,0,0,-255,0,-255,0,0,0,0,9.5,13.09,1.24355,11.8465
855,92,0,5.95384,41.0915,0,500,0,0.00000000,0.00000000,0,0,-255,0,-255,0,0,0,0,9.5,13.09,1.24355,11.8465
856,93,0,5.96541,41.1082,0,500,0,0.00000000,0.00000000,0,0,-255,0,-255,0,0,0,0,9.7,13.09,1.26973,11.8203
857,93,0,5.97469,41.1213,0,500,0,0.00000000,0.00000000,0,0,-255,0,-255,0,0,0,0,9.9,13.09,1.29591,11.7941
858,92,0,5.9863,41.1316,0,497,0,0.00000000,0.00000000,0,0,-255,0,-255,0,0,0,0,9.9,13.09,1.29591,11.7941
859,92,0,5.9979,41.1445,0,502,0,0.00000000,0.00000000,0,0,-255,0,-255,0,0,0,0,9.9,13.09,1.29591,11.7941
860,92,0,6.0095,41.1517,0,499,0,0.00000000,0.00000000,0,0,-255,0,-255,0,0,0,0,9.9,13.09,1.29591,11.7941
861,91,0,6.02114,41.1631,0,499,0,0.00000000,0.00000000,0,0,-255,0,-255,0,0,0,0,9.9,13.09,1.29591,11.7941
862,92,0,6.03274,41.1708,0,501,0,0.00000000,0.00000000,0,0,-255,0,-255,0,0,0,0,9.9,13.09,1.29591,11.7941
863,93,0,6.04436,41.1724,0,498,0,0.00000000,0.00000000,0,0,-255,0,-255,0,0,0,0,10.1,13.09,1.32209,11.7679
864,93,0,6.05596,41.1738,0,497,0,0.00000000,0.00000000,0,0,-255,0,-255,0,0,0,0,10.1,13.09,1.32209,11.7679
865,91,0,6.06758,41.176,0,500,0,0.00000000,0.00000000,0,0,-255,0,-255,0,0,0,0,10.1,13.09,1.32209,11.7679
866,90,0,6.07919,41.1827,0,500,0,0.00000000,0.00000000,0,0,-255,0,-255,0,0,0,0,9.9,13.09,1.29591,11.7941
867,91,0,6.09083,41.1919,0,501,0,0.00000000,0.00000000,0,0,-255,0,-255,0,0,0,0,10.2,13.09,1.33518,11.7548
868,91,0,6.10245,41.1971,0,499,0,0.00000000,0.00000000,0,0,-255,0,-255,0,0,0,0,10.2,13.09,1.33518,11.7548
869,91,0,6.11408,41.2,0,500,0,0.00000000,0.00000000,0,0,-255,0,-255,0,0,0,0,10.1,13.09,1.32209,11.7679
870,89,0,6.12339,41.2008,0,499,0,0.00000000,0.00000000,0,0,-255,0,-255,0,0,0,0,10.1,13.09,1.32209,11.7679
871,90,0,6.13499,41.2009,0,500,0,0.00000000,0.00000000,0,0,-255,0,-255,0,0,0,0,10.1,13.09,1.32209,11.7679
872,90,0,6.14662,41.2499,0,519,0,0.00000000,0.00000000,0,0,-255,0,-255,0,0,0,0,10.1,13.09,1.32209,11.7679
873,90,0,6.15827,41.3194,0,519,0,0.00000000,0.00000000,0,0,-255,0,-255,0,0,0,0,10,13.09,1.309,11.781
874,89,0,6.16993,41.3931,0,524,0,0.00000000,0.00000000,0,0,-255,0,-255,0,0,0,0,10,13.09,1.309,11.781
875,89,0,6.18165,41.4605,0,524,0,0.00000000,0.00000000,0,0,-255,0,-255,0,0,0,0,10.2,13.09,1.33518,11.7548
876,88,0,6.19335,41.5194,0,525,0,0.00000000,0.00000000,0,0,-255,0,-255,0,0,0,0,10.2,13.09,1.33518,11.7548
877,88,0,6.20506,41.5756,0,526,0,0.00000000,0.00000000,0,0,-255,0,-255,0,0,0,0,10.1,13.09,1.32209,11.7679
878,89,0,6.21677,41.6262,0,526,0,0.00000000,0.00000000,0,0,-255,0,-255,0,0,0,0,10.1,13.09,1.32209,11.7679
879,89,0,6.22858,41.6693,0,523,0,0.00000000,0.00000000,0,0,-255,0,-255,0,0,0,0,10.2,13.09,1.33518,11.7548
880,89,0,6.24029,41.6964,0,521,0,0.00000000,0.00000000,0,0,-255,0,-255,0,0,0,0,10.2,13.09,1.33518,11.7548
881,88,0,6.25206,41.7186,0,521,0,0.00000000,0.00000000,0,0,-255,0,-255,0,0,0,0,10.1,13.09,1.32209,11.7679
882,86,0,6.26385,41.7285,0,522,0,0.00000000,0.00000000,0,0,-255,0,-255,0,0,0,0,10.1,13.09,1.32209,11.7679
883,86,0,6.27328,41.7569,0,528,0,0.00000000,0.00000000,0,0,-255,0,-255,0,0,0,0,10.3,13.1,1.3493,11.7507
884,85,0,6.28504,41.7658,0,514,0,0.00000000,0.00000000,0,0,-255,0,-255,0,0,0,0,10.3,13.1,1.3493,11.7507
885,83,0,6.29681,41.7427,0,513,0,0.00000000,0.00000000,0,0,-255,0,-255,0,0,0,0,10.1,13.09,1.32209,11.7679
886,81,0,6.3086,41.7252,0,513,0,0.00000000,0.00000000,0,0,-255,0,-255,0,0,0,0,10.1,13.09,1.32209,11.7679
887,76,0,6.32036,41.6792,0,500,0,0.00000000,0.00000000,0,0,-255,0,-255,0,0,0,0,10,13.09,1.309,11.781
888,74,0,6.33212,41.533,0,474,0,0.00000000,0.00000000,0,0,-255,0,-255,0,0,0,0,10,13.09,1.309,11.781
889,74,0,6.34371,40.0847,0,0,0,0.00000000,0.00000000,0,0,-255,0,-255,0,0,0,0,10.1,13.08,1.32108,11.7589
890,74,0,6.35471,38.2398,0,0,0,0.00000000,0.00000000,0,0,-255,0,-255,0,0,0,0,10.1,13.08,1.32108,11.7589
891,74,0,6.36529,36.5347,0,0,0,0.00000000,0.00000000,0,0,-255,0,-255,0,0,0,0,10.1,13.08,1.32108,11.7589
892,74,0,6.37534,34.9733,0,0,0,0.00000000,0.00000000,0,0,-255,0,-255,0,0,0,0,10.1,13.08,1.32108,11.7589
893,74,0,6.38499,33.526,0,0,0,0.00000000,0.00000000,0,0,-255,0,-255,0,0,0,0,10.1,13.08,1.32108,11.7589
894,74,0,6.39427,32.1797,0,0,0,0.00000000,0.00000000,0,0,-255,0,-255,0,0,0,0,10.1,13.08,1.32108,11.7589
895,0,0,6.40317,30.9277,0,0,0,0.00000000,0.00000000,0,0,-255,0,-255,0,0,0,0,13.2,13.09,1.72788,11.3621
896,0,0,6.41003,29.9886,0,0,0,0.00000000,0.00000000,0,0,-255,0,-255,0,0,0,0,13.2,13.09,1.72788,11.3621
897,0,0,6.41833,28.8812,0,0,0,0.00000000,0.00000000,0,0,-255,0,-255,0,0,0,0,15.4,13.09,2.01586,11.0741
898,1,0,6.42633,27.8419,0,0,0,0.00000000,0.00000000,0,0,-255,0,-255,0,0,0,0,15.4,13.09,2.01586,11.0741
899,1,0,6.43406,26.8637,0,0,0,0.00000000,0.00000000,0,0,-255,0,-255,0,0,0,0,15.4,13.09,2.01586,11.0741
900,0,0,6.44151,25.9425,0,0,0,0.00000000,0.00000000,0,0,-255,0,-255,0,0,0,0,15.4,13.09,2.01586,11.0741
901,0,0,6.44869,25.0751,0,0,0,0.00000000,0.00000000,0,0,-255,0,-255,0,0,0,0,21.3,13.1,2.7903,10.3097
902,0,0,6.45566,24.2518,0,0,0,0.00000000,0.00000000,0,0,-255,0,-255,0,0,0,0,21.3,13.1,2.7903,10.3097
903,74,0,6.4624,23.4717,0,0,0,0.00000000,0.00000000,0,0,-255,0,-255,0,0,0,0,25.1,13.1,3.2881,9.8119
904,1,0,6.46892,22.7303,0,0,0,0.00000000,0.00000000,0,0,-255,0,-255,0,0,0,0,25.1,13.1,3.2881,9.8119
905,1,0,6.47707,21.8144,0,0,0,0.00000000,0.00000000,0,0,-255,0,-255,0,0,0,0,30.1,13.08,3.93708,9.14292
