secs,cad,hr,km,kph,nm,watts,alt,lon,lat,headwind,slope,temp,interval,lrbalance,lte,rte,lps,rps,smo2,thb,o2hb,hhb
0,0,0,0,0,0,0,0,0.00000000,0.00000000,0,0,-255,0,-255,0,0,0,0,70.1,12.74,8.93074,3.80926
1,61,0,0.000341085,4.05134,0,196,0,0.00000000,0.00000000,0,0,-255,0,-255,0,0,0,0,70.1,12.74,8.93074,3.80926
2,1,0,0.00219658,8.44013,0,193,0,0.00000000,0.00000000,0,0,-255,0,-255,0,0,0,0,70,12.75,8.925,3.825
3,64,0,0.00510125,11.0049,0,160,0,0.00000000,0.00000000,0,0,-255,0,-255,0,0,0,0,70,12.75,8.925,3.825
4,75,0,0.0084571,13.0253,0,286,0,0.00000000,0.00000000,0,0,-255,0,-255,0,0,0,0,69.7,12.75,8.88675,3.86325
5,79,0,0.0116877,15.3238,0,327,0,0.00000000,0.00000000,0,0,-255,0,-255,0,0,0,0,68.8,12.75,8.772,3.978
6,78,0,0.0163989,18.0194,0,342,0,0.00000000,0.00000000,0,0,-255,0,-255,0,0,0,0,68.8,12.75,8.772,3.978
7,85,0,0.0218335,20.2754,0,277,0,0.00000000,0.00000000,0,0,-255,0,-255,0,0,0,0,66.8,12.76,8.52368,4.23632
8,82,0,0.027846,21.7726,0,248,0,0.00000000,0.00000000,0,0,-255,0,-255,0,0,0,0,66.8,12.76,8.52368,4.23632
9,82,0,0.0343145,23.6931,0,381,0,0.00000000,0.00000000,0,0,-255,0,-255,0,0,0,0,66.8,12.76,8.52368,4.23632
10,89,0,0.0413154,25.0203,0,292,0,0.00000000,0.00000000,0,0,-255,0,-255,0,0,0,0,66.8,12.76,8.52368,4.23632
11,87,0,0.0486972,25.9779,0,279,0,0.00000000,0.00000000,0,0,-255,0,-255,0,0,0,0,63.9,12.75,8.14725,4.60275
12,92,0,0.0562471,27.132,0,364,0,0.00000000,0.00000000,0,0,-255,0,-255,0,0,0,0,59.7,12.74,7.60578,5.13422
13,89,0,0.0640458,27.8515,0,271,0,0.00000000,0.00000000,0,0,-255,0,-255,0,0,0,0,54,12.74,6.8796,5.8604
14,89,0,0.0719523,28.5026,0,304,0,0.00000000,0.00000000,0,0,-255,0,-255,0,0,0,0,54,12.74,6.8796,5.8604
15,88,0,0.0784232,29.0417,0,330,0,0.00000000,0.00000000,0,0,-255,0,-255,0,0,0,0,47.5,12.73,6.04675,6.68325
16,88,0,0.0867389,29.7275,0,222,0,0.00000000,0.00000000,0,0,-255,0,-255,0,0,0,0,47.5,12.73,6.04675,6.68325
17,88,0,0.0952416,30.1038,0,310,0,0.00000000,0.00000000,0,0,-255,0,-255,0,0,0,0,41.1,12.72,5.22792,7.49208
18,92,0,0.103983,30.796,0,371,0,0.00000000,0.00000000,0,0,-255,0,-255,0,0,0,0,41.1,12.72,5.22792,7.49208
19,96,0,0.112931,31.4849,0,352,0,0.00000000,0.00000000,0,0,-255,0,-255,0,0,0,0,35.2,12.73,4.48096,8.24904
20,90,0,0.122376,31.6671,0,262,0,0.00000000,0.00000000,0,0,-255,0,-255,0,0,0,0,35.2,12.73,4.48096,8.24904
21,90,0,0.129784,31.7592,0,263,0,0.00000000,0.00000000,0,0,-255,0,-255,0,0,0,0,30.8,12.73,3.92084,8.80916
22,90,0,0.13922,31.9801,0,305,0,0.00000000,0.00000000,0,0,-255,0,-255,0,0,0,0,30.8,12.73,3.92084,8.80916
23,89,0,0.148677,32.135,0,301,0,0.00000000,0.00000000,0,0,-255,0,-255,0,0,0,0,28,12.73,3.5644,9.1656
24,93,0,0.157881,32.4308,0,289,0,0.00000000,0.00000000,0,0,-255,0,-255,0,0,0,0,28,12.73,3.5644,9.1656
25,93,0,0.167245,32.5736,0,252,0,0.00000000,0.00000000,0,0,-255,0,-255,0,0,0,0,25.7,12.73,3.27161,9.45839
26,90,0,0.176569,32.5782,0,309,0,0.00000000,0.00000000,0,0,-255,0,-255,0,0,0,0,25.7,12.73,3.27161,9.45839
27,91,0,0.184071,32.7147,0,269,0,0.00000000,0.00000000,0,0,-255,0,-255,0,0,0,0,24.7,12.74,3.14678,9.59322
28,90,0,0.193846,32.7769,0,268,0,0.00000000,0.00000000,0,0,-255,0,-255,0,0,0,0,24.7,12.74,3.14678,9.59322
29,90,0,0.203202,32.8322,0,336,0,0.00000000,0.00000000,0,0,-255,0,-255,0,0,0,0,24.2,12.74,3.08308,9.65692
30,91,0,0.212486,33.0525,0,257,0,0.00000000,0.00000000,0,0,-255,0,-255,0,0,0,0,24.2,12.74,3.08308,9.65692
31,89,0,0.221788,33.0192,0,268,0,0.00000000,0.00000000,0,0,-255,0,-255,0,0,0,0,24.2,12.74,3.08308,9.65692
32,89,0,0.23125,33.0269,0,291,0,0.00000000,0.00000000,0,0,-255,0,-255,0,0,0,0,23.8,12.74,3.03212,9.70788
33,89,0,0.240567,33.1155,0,281,0,0.00000000,0.00000000,0,0,-255,0,-255,0,0,0,0,23.2,12.74,2.95568,9.78432
34,89,0,0.249879,33.225,0,300,0,0.00000000,0.00000000,0,0,-255,0,-255,0,0,0,0,23.2,12.74,2.95568,9.78432
35,89,0,0.259246,33.2756,0,284,0,0.00000000,0.00000000,0,0,-255,0,-255,0,0,0,0,23.4,12.73,2.97882,9.75118
36,89,0,0.268762,33.3667,0,298,0,0.00000000,0.00000000,0,0,-255,0,-255,0,0,0,0,23.4,12.73,2.97882,9.75118
37,89,0,0.278174,33.4656,0,298,0,0.00000000,0.00000000,0,0,-255,0,-255,0,0,0,0,23.2,12.73,2.95336,9.77664
38,89,0,0.285831,33.506,0,285,0,0.00000000,0.00000000,0,0,-255,0,-255,0,0,0,0,23.2,12.73,2.95336,9.77664
39,90,0,0.295678,33.4577,0,256,0,0.00000000,0.00000000,0,0,-255,0,-255,0,0,0,0,23.1,12.73,2.94063,9.78937
40,91,0,0.305326,33.5445,0,305,0,0.00000000,0.00000000,0,0,-255,0,-255,0,0,0,0,23.1,12.73,2.94063,9.78937
41,90,0,0.3148,33.7117,0,364,0,0.00000000,0.00000000,0,0,-255,0,-255,0,0,0,0,22.8,12.73,2.90244,9.82756
42,96,0,0.324474,33.8861,0,246,0,0.00000000,0.00000000,0,0,-255,0,-255,0,0,0,0,22.8,12.73,2.90244,9.82756
43,95,0,0.334137,33.7492,0,290,0,0.00000000,0.00000000,0,0,-255,0,-255,0,0,0,0,22.3,12.73,2.83879,9.89121
44,93,0,0.343745,33.7213,0,278,0,0.00000000,0.00000000,0,0,-255,0,-255,0,0,0,0,22.3,12.73,2.83879,9.89121
45,93,0,0.353177,33.6876,0,299,0,0.00000000,0.00000000,0,0,-255,0,-255,0,0,0,0,22.2,12.73,2.82606,9.90394
46,93,0,0.360813,33.7379,0,284,0,0.00000000,0.00000000,0,0,-255,0,-255,0,0,0,0,22.2,12.73,2.82606,9.90394
47,93,0,0.370355,33.753,0,293,0,0.00000000,0.00000000,0,0,-255,0,-255,0,0,0,0,22,12.73,2.8006,9.9294
48,92,0,0.379879,33.7053,0,237,0,0.00000000,0.00000000,0,0,-255,0,-255,0,0,0,0,22,12.73,2.8006,9.9294
49,92,0,0.389391,33.6713,0,286,0,0.00000000,0.00000000,0,0,-255,0,-255,0,0,0,0,22,12.73,2.8006,9.9294
50,92,0,0.398891,33.6089,0,298,0,0.00000000,0.00000000,0,0,-255,0,-255,0,0,0,0,21.7,12.73,2.76241,9.96759
51,92,0,0.408361,33.6713,0,295,0,0.00000000,0.00000000,0,0,-255,0,-255,0,0,0,0,21.9,12.73,2.78787,9.94213
52,91,0,0.417993,33.6206,0,277,0,0.00000000,0.00000000,0,0,-255,0,-255,0,0,0,0,21.9,12.73,2.78787,9.94213
53,90,0,0.427596,33.5765,0,270,0,0.00000000,0.00000000,0,0,-255,0,-255,0,0,0,0,22.6,12.74,2.87924,9.86076
54,90,0,0.437201,33.6668,0,304,0,0.00000000,0.00000000,0,0,-255,0,-255,0,0,0,0,22.6,12.74,2.87924,9.86076
55,90,0,0.446854,33.6592,0,303,0,0.00000000,0.00000000,0,0,-255,0,-255,0,0,0,0,22.6,12.73,2.87698,9.85302
56,89,0,0.456513,33.7507,0,303,0,0.00000000,0.00000000,0,0,-255,0,-255,0,0,0,0,22.6,12.73,2.87698,9.85302
57,90,0,0.464246,33.7252,0,272,0,0.00000000,0.00000000,0,0,-255,0,-255,0,0,0,0,22.7,12.73,2.88971,9.84029
58,90,0,0.473911,33.8074,0,306,0,0.00000000,0.00000000,0,0,-255,0,-255,0,0,0,0,22.7,12.73,2.88971,9.84029
59,92,0,0.483766,33.8784,0,291,0,0.00000000,0.00000000,0,0,-255,0,-255,0,0,0,0,22.9,12.74,2.91746,9.82254
60,91,0,0.493322,33.8167,0,281,0,0.00000000,0.00000000,0,0,-255,0,-255,0,0,0,0,22.9,12.74,2.91746,9.82254
61,90,0,0.503159,33.8227,0,305,0,0.00000000,0.00000000,0,0,-255,0,-255,0,0,0,0,22.6,12.74,2.87924,9.86076
62,91,0,0.512665,33.8322,0,287,0,0.00000000,0.00000000,0,0,-255,0,-255,0,0,0,0,22.6,12.74,2.87924,9.86076
63,91,0,0.522239,33.8294,0,287,0,0.00000000,0.00000000,0,0,-255,0,-255,0,0,0,0,22.5,12.74,2.8665,9.8735
64,90,0,0.531851,33.8543,0,287,0,0.00000000,0.00000000,0,0,-255,0,-255,0,0,0,0,22.5,12.74,2.8665,9.8735
65,91,0,0.541518,33.7894,0,273,0,0.00000000,0.00000000,0,0,-255,0,-255,0,0,0,0,22.6,12.74,2.87924,9.86076
66,91,0,0.549092,33.7401,0,293,0,0.00000000,0.00000000,0,0,-255,0,-255,0,0,0,0,22.6,12.74,2.87924,9.86076
67,90,0,0.558892,33.8059,0,302,0,0.00000000,0.00000000,0,0,-255,0,-255,0,0,0,0,22.5,12.74,2.8665,9.8735
68,92,0,0.568601,33.8785,0,310,0,0.00000000,0.00000000,0,0,-255,0,-255,0,0,0,0,22.5,12.74,2.8665,9.8735
69,93,0,0.578222,33.8895,0,278,0,0.00000000,0.00000000,0,0,-255,0,-255,0,0,0,0,22.4,12.73,2.85152,9.87848
70,92,0,0.587717,33.8355,0,276,0,0.00000000,0.00000000,0,0,-255,0,-255,0,0,0,0,22.4,12.73,2.85152,9.87848
71,89,0,0.597413,33.7367,0,269,0,0.00000000,0.00000000,0,0,-255,0,-255,0,0,0,0,22.4,12.73,2.85152,9.87848
72,89,0,0.607213,33.6785,0,307,0,0.00000000,0.00000000,0,0,-255,0,-255,0,0,0,0,23.1,12.74,2.94294,9.79706
73,90,0,0.616682,33.6828,0,264,0,0.00000000,0.00000000,0,0,-255,0,-255,0,0,0,0,23.7,12.74,3.01938,9.72062
74,89,0,0.626236,33.7113,0,301,0,0.00000000,0.00000000,0,0,-255,0,-255,0,0,0,0,23.7,12.74,3.01938,9.72062
75,91,0,0.635914,33.7312,0,286,0,0.00000000,0.00000000,0,0,-255,0,-255,0,0,0,0,23.9,12.74,3.04486,9.69514
76,90,0,0.643824,33.6892,0,255,0,0.00000000,0.00000000,0,0,-255,0,-255,0,0,0,0,23.9,12.74,3.04486,9.69514
77,88,0,0.653378,33.5894,0,289,0,0.00000000,0.00000000,0,0,-255,0,-255,0,0,0,0,24.4,12.74,3.10856,9.63144
78,90,0,0.663083,33.6594,0,304,0,0.00000000,0.00000000,0,0,-255,0,-255,0,0,0,0,24.4,12.74,3.10856,9.63144
79,89,0,0.672741,33.7049,0,265,0,0.00000000,0.00000000,0,0,-255,0,-255,0,0,0,0,25.1,12.74,3.19774,9.54226
80,88,0,0.682513,33.7443,0,319,0,0.00000000,0.00000000,0,0,-255,0,-255,0,0,0,0,25.1,12.74,3.19774,9.54226
81,89,0,0.692217,33.7761,0,305,0,0.00000000,0.00000000,0,0,-255,0,-255,0,0,0,0,25.4,12.74,3.23596,9.50404
82,91,0,0.699982,33.819,0,284,0,0.00000000,0.00000000,0,0,-255,0,-255,0,0,0,0,25.4,12.74,3.23596,9.50404
83,90,0,0.709759,33.6781,0,255,0,0.00000000,0.00000000,0,0,-255,0,-255,0,0,0,0,25.3,12.74,3.22322,9.51678
84,92,0,0.719426,33.7567,0,260,0,0.00000000,0.00000000,0,0,-255,0,-255,0,0,0,0,25.3,12.74,3.22322,9.51678
85,91,0,0.729102,33.6088,0,254,0,0.00000000,0.00000000,0,0,-255,0,-255,0,0,0,0,25.5,12.75,3.25125,9.49875
86,91,0,0.738709,33.5067,0,288,0,0.00000000,0.00000000,0,0,-255,0,-255,0,0,0,0,25.5,12.75,3.25125,9.49875
87,90,0,0.748453,33.5242,0,276,0,0.00000000,0.00000000,0,0,-255,0,-255,0,0,0,0,25.5,12.75,3.25125,9.49875
88,91,0,0.756034,33.5191,0,284,0,0.00000000,0.00000000,0,0,-255,0,-255,0,0,0,0,25.5,12.75,3.25125,9.49875
89,91,0,0.765468,33.5917,0,275,0,0.00000000,0.00000000,0,0,-255,0,-255,0,0,0,0,24.9,12.75,3.17475,9.57525
90,91,0,0.775122,33.5832,0,285,0,0.00000000,0.00000000,0,0,-255,0,-255,0,0,0,0,24.9,12.75,3.17475,9.57525
91,89,0,0.784748,33.5559,0,322,0,0.00000000,0.00000000,0,0,-255,0,-255,0,0,0,0,24.2,12.75,3.0855,9.6645
92,90,0,0.794525,33.6845,0,295,0,0.00000000,0.00000000,0,0,-255,0,-255,0,0,0,0,24.2,12.75,3.0855,9.6645
93,90,0,0.804053,33.6837,0,283,0,0.00000000,0.00000000,0,0,-255,0,-255,0,0,0,0,24,12.74,3.0576,9.6824
94,91,0,0.813558,33.8405,0,331,0,0.00000000,0.00000000,0,0,-255,0,-255,0,0,0,0,24,12.74,3.0576,9.6824
95,89,0,0.823105,33.8319,0,281,0,0.00000000,0.00000000,0,0,-255,0,-255,0,0,0,0,23.9,12.74,3.04486,9.69514
96,89,0,0.830821,33.8863,0,314,0,0.00000000,0.00000000,0,0,-255,0,-255,0,0,0,0,23.9,12.74,3.04486,9.69514
97,89,0,0.840497,33.848,0,329,0,0.00000000,0.00000000,0,0,-255,0,-255,0,0,0,0,23.9,12.74,3.04486,9.69514
98,90,0,0.850238,33.9363,0,256,0,0.00000000,0.00000000,0,0,-255,0,-255,0,0,0,0,23.9,12.74,3.04486,9.69514
99,89,0,0.859973,33.9204,0,320,0,0.00000000,0.00000000,0,0,-255,0,-255,0,0,0,0,24.2,12.75,3.0855,9.6645
100,89,0,0.870005,34.0326,0,296,0,0.00000000,0.00000000,0,0,-255,0,-255,0,0,0,0,24.2,12.75,3.0855,9.6645
101,88,0,0.879934,33.9092,0,310,0,0.00000000,0.00000000,0,0,-255,0,-255,0,0,0,0,24.6,12.75,3.1365,9.6135
102,89,0,0.887888,33.9505,0,284,0,0.00000000,0.00000000,0,0,-255,0,-255,0,0,0,0,24.6,12.75,3.1365,9.6135
103,89,0,0.897749,33.9578,0,295,0,0.00000000,0.00000000,0,0,-255,0,-255,0,0,0,0,24.8,12.75,3.162,9.588
104,89,0,0.90744,33.9809,0,296,0,0.00000000,0.00000000,0,0,-255,0,-255,0,0,0,0,24.8,12.75,3.162,9.588
105,90,0,0.91739,34.0053,0,298,0,0.00000000,0.00000000,0,0,-255,0,-255,0,0,0,0,25.2,12.75,3.213,9.537
106,89,0,0.926927,33.9641,0,269,0,0.00000000,0.00000000,0,0,-255,0,-255,0,0,0,0,25.2,12.75,3.213,9.537
107,89,0,0.93659,33.9402,0,293,0,0.00000000,0.00000000,0,0,-255,0,-255,0,0,0,0,25.2,12.75,3.213,9.537
108,90,0,0.946033,33.9714,0,306,0,0.00000000,0.00000000,0,0,-255,0,-255,0,0,0,0,25.2,12.75,3.213,9.537
109,89,0,0.954013,33.9818,0,285,0,0.00000000,0.00000000,0,0,-255,0,-255,0,0,0,0,25.6,12.75,3.264,9.486
110,89,0,0.963618,33.9654,0,290,0,0.00000000,0.00000000,0,0,-255,0,-255,0,0,0,0,25.6,12.75,3.264,9.486
111,89,0,0.973646,34.0145,0,305,0,0.00000000,0.00000000,0,0,-255,0,-255,0,0,0,0,26.1,12.75,3.32775,9.42225
112,86,0,0.983354,33.8957,0,247,0,0.00000000,0.00000000,0,0,-255,0,-255,0,0,0,0,26.1,12.75,3.32775,9.42225
113,87,0,0.993186,33.9127,0,312,0,0.00000000,0.00000000,0,0,-255,0,-255,0,0,0,0,26.2,12.76,3.34312,9.41688
114,89,0,1.00269,34.0488,0,331,0,0.00000000,0.00000000,0,0,-255,0,-255,0,0,0,0,26.2,12.76,3.34312,9.41688
115,89,0,1.0125,34.1062,0,291,0,0.00000000,0.00000000,0,0,-255,0,-255,0,0,0,0,25.8,12.75,3.2895,9.4605
116,88,0,1.0204,34.0945,0,291,0,0.00000000,0.00000000,0,0,-255,0,-255,0,0,0,0,25.8,12.75,3.2895,9.4605
117,90,0,1.03036,34.0841,0,288,0,0.00000000,0.00000000,0,0,-255,0,-255,0,0,0,0,25.7,12.76,3.27932,9.48068
118,90,0,1.0401,34.1048,0,309,0,0.00000000,0.00000000,0,0,-255,0,-255,0,0,0,0,25.7,12.76,3.27932,9.48068
119,89,0,1.04997,34.0579,0,274,0,0.00000000,0.00000000,0,0,-255,0,-255,0,0,0,0,25.4,12.76,3.24104,9.51896
120,89,0,1.05983,34.0439,0,303,0,0.00000000,0.00000000,0,0,-255,0,-255,0,0,0,0,25.4,12.76,3.24104,9.51896
121,88,0,1.06939,34.0955,0,304,0,0.00000000,0.00000000,0,0,-255,0,-255,0,0,0,0,24.7,12.75,3.14925,9.60075
122,89,0,1.07731,34.0989,0,296,0,0.00000000,0.00000000,0,0,-255,0,-255,0,0,0,0,24.7,12.75,3.14925,9.60075
124,88,0,1.08716,34.1307,0,305,0,0.00000000,0.00000000,0,0,-255,0,-255,0,0,0,0,24.7,12.75,3.14925,9.60075
125,89,0,1.09724,34.1842,0,296,0,0.00000000,0.00000000,0,0,-255,0,-255,0,0,0,0,24.7,12.75,3.14925,9.60075
126,89,0,1.10704,34.2283,0,325,0,0.00000000,0.00000000,0,0,-255,0,-255,0,0,0,0,25,12.77,3.1925,9.5775
127,88,0,1.11716,34.2587,0,317,0,0.00000000,0.00000000,0,0,-255,0,-255,0,0,0,0,25.7,12.77,3.28189,9.48811
128,90,0,1.12492,34.2971,0,303,0,0.00000000,0.00000000,0,0,-255,0,-255,0,0,0,0,25.7,12.77,3.28189,9.48811
129,89,0,1.13488,34.2906,0,301,0,0.00000000,0.00000000,0,0,-255,0,-255,0,0,0,0,25.7,12.77,3.28189,9.48811
130,89,0,1.14482,34.255,0,281,0,0.00000000,0.00000000,0,0,-255,0,-255,0,0,0,0,26.4,12.77,3.37128,9.39872
131,89,0,1.15458,34.2291,0,299,0,0.00000000,0.00000000,0,0,-255,0,-255,0,0,0,0,26.4,12.77,3.37128,9.39872
132,88,0,1.16455,34.2249,0,289,0,0.00000000,0.00000000,0,0,-255,0,-255,0,0,0,0,26.6,12.77,3.39682,9.37318
133,89,0,1.17455,34.1918,0,284,0,0.00000000,0.00000000,0,0,-255,0,-255,0,0,0,0,26.6,12.77,3.39682,9.37318
134,90,0,1.18419,34.1714,0,295,0,0.00000000,0.00000000,0,0,-255,0,-255,0,0,0,0,26.6,12.77,3.39682,9.37318
135,90,0,1.19394,34.1427,0,284,0,0.00000000,0.00000000,0,0,-255,0,-255,0,0,0,0,26.9,12.77,3.43513,9.33487
136,89,0,1.20178,34.1139,0,308,0,0.00000000,0.00000000,0,0,-255,0,-255,0,0,0,0,26.9,12.77,3.43513,9.33487
137,88,0,1.21179,34.1219,0,315,0,0.00000000,0.00000000,0,0,-255,0,-255,0,0,0,0,26.9,12.77,3.43513,9.33487
138,89,0,1.22161,34.069,0,270,0,0.00000000,0.00000000,0,0,-255,0,-255,0,0,0,0,26.8,12.77,3.42236,9.34764
139,89,0,1.23156,34.0797,0,306,0,0.00000000,0.00000000,0,0,-255,0,-255,0,0,0,0,26.5,12.77,3.38405,9.38595
140,92,0,1.24125,34.1276,0,295,0,0.00000000,0.00000000,0,0,-255,0,-255,0,0,0,0,26.5,12.77,3.38405,9.38595
141,91,0,1.25088,34.0656,0,276,0,0.00000000,0.00000000,0,0,-255,0,-255,0,0,0,0,27,12.78,3.4506,9.3294
142,89,0,1.26041,34.0184,0,317,0,0.00000000,0.00000000,0,0,-255,0,-255,0,0,0,0,27,12.78,3.4506,9.3294
143,89,0,1.27004,34.0457,0,256,0,0.00000000,0.00000000,0,0,-255,0,-255,0,0,0,0,27.3,12.78,3.48894,9.29106
144,88,0,1.27768,33.9603,0,291,0,0.00000000,0.00000000,0,0,-255,0,-255,0,0,0,0,27.3,12.78,3.48894,9.29106
145,89,0,1.28724,34.0937,0,276,0,0.00000000,0.00000000,0,0,-255,0,-255,0,0,0,0,27.3,12.78,3.48894,9.29106
146,89,0,1.29691,34.0794,0,297,0,0.00000000,0.00000000,0,0,-255,0,-255,0,0,0,0,27.1,12.78,3.46338,9.31662
147,89,0,1.30651,34.0344,0,278,0,0.00000000,0.00000000,0,0,-255,0,-255,0,0,0,0,26.9,12.78,3.43782,9.34218
148,89,0,1.3162,34.0515,0,304,0,0.00000000,0.00000000,0,0,-255,0,-255,0,0,0,0,26.9,12.78,3.43782,9.34218
149,88,0,1.32586,34.0598,0,263,0,0.00000000,0.00000000,0,0,-255,0,-255,0,0,0,0,27.4,12.79,3.50446,9.28554
150,88,0,1.33575,33.9782,0,288,0,0.00000000,0.00000000,0,0,-255,0,-255,0,0,0,0,27.4,12.79,3.50446,9.28554
151,88,0,1.34577,34.0009,0,323,0,0.00000000,0.00000000,0,0,-255,0,-255,0,0,0,0,27.1,12.78,3.46338,9.31662
152,89,0,1.35552,34.1116,0,298,0,0.00000000,0.00000000,0,0,-255,0,-255,0,0,0,0,27.1,12.78,3.46338,9.31662
153,89,0,1.36517,34.1152,0,322,0,0.00000000,0.00000000,0,0,-255,0,-255,0,0,0,0,27.1,12.78,3.46338,9.31662
154,88,0,1.37315,34.1889,0,260,0,0.00000000,0.00000000,0,0,-255,0,-255,0,0,0,0,26.4,12.78,3.37392,9.40608
155,88,0,1.38294,34.137,0,295,0,0.00000000,0.00000000,0,0,-255,0,-255,0,0,0,0,26.6,12.78,3.39948,9.38052
156,89,0,1.39287,34.1675,0,305,0,0.00000000,0.00000000,0,0,-255,0,-255,0,0,0,0,26.6,12.78,3.39948,9.38052
157,89,0,1.40265,34.1763,0,296,0,0.00000000,0.00000000,0,0,-255,0,-255,0,0,0,0,26.2,12.78,3.34836,9.43164
158,88,0,1.41229,34.1565,0,287,0,0.00000000,0.00000000,0,0,-255,0,-255,0,0,0,0,26.2,12.78,3.34836,9.43164
159,89,0,1.42225,34.194,0,310,0,0.00000000,0.00000000,0,0,-255,0,-255,0,0,0,0,25.7,12.77,3.28189,9.48811
160,89,0,1.43053,34.1678,0,278,0,0.00000000,0.00000000,0,0,-255,0,-255,0,0,0,0,25.7,12.77,3.28189,9.48811
161,89,0,1.44028,34.1432,0,293,0,0.00000000,0.00000000,0,0,-255,0,-255,0,0,0,0,25.8,12.77,3.29466,9.47534
162,89,0,1.4499,34.164,0,314,0,0.00000000,0.00000000,0,0,-255,0,-255,0,0,0,0,25.8,12.77,3.29466,9.47534
163,90,0,1.45951,34.2225,0,306,0,0.00000000,0.00000000,0,0,-255,0,-255,0,0,0,0,26.1,12.77,3.33297,9.43703
164,90,0,1.46944,34.2339,0,306,0,0.00000000,0.00000000,0,0,-255,0,-255,0,0,0,0,26.1,12.77,3.33297,9.43703
165,91,0,1.47939,34.3112,0,302,0,0.00000000,0.00000000,0,0,-255,0,-255,0,0,0,0,26.1,12.77,3.33297,9.43703
166,91,0,1.48731,34.3201,0,301,0,0.00000000,0.00000000,0,0,-255,0,-255,0,0,0,0,25.7,12.78,3.28446,9.49554
167,90,0,1.49713,34.3044,0,295,0,0.00000000,0.00000000,0,0,-255,0,-255,0,0,0,0,26.1,12.78,3.33558,9.44442
168,90,0,1.50729,34.2723,0,277,0,0.00000000,0.00000000,0,0,-255,0,-255,0,0,0,0,26.1,12.78,3.33558,9.44442
169,89,0,1.51725,34.2009,0,287,0,0.00000000,0.00000000,0,0,-255,0,-255,0,0,0,0,25.9,12.78,3.31002,9.46998
170,89,0,1.52691,34.1438,0,277,0,0.00000000,0.00000000,0,0,-255,0,-255,0,0,0,0,25.9,12.78,3.31002,9.46998
171,87,0,1.53648,34.0482,0,301,0,0.00000000,0.00000000,0,0,-255,0,-255,0,0,0,0,25.6,12.79,3.27424,9.51576
172,89,0,1.54431,34.1067,0,319,0,0.00000000,0.00000000,0,0,-255,0,-255,0,0,0,0,25.6,12.79,3.27424,9.51576
173,88,0,1.55452,34.1793,0,279,0,0.00000000,0.00000000,0,0,-255,0,-255,0,0,0,0,24.8,12.79,3.17192,9.61808
174,89,0,1.56457,34.1203,0,320,0,0.00000000,0.00000000,0,0,-255,0,-255,0,0,0,0,24.8,12.79,3.17192,9.61808
175,89,0,1.5744,34.0983,0,262,0,0.00000000,0.00000000,0,0,-255,0,-255,0,0,0,0,24.3,12.79,3.10797,9.68203
176,88,0,1.58215,34.043,0,307,0,0.00000000,0.00000000,0,0,-255,0,-255,0,0,0,0,24.3,12.79,3.10797,9.68203
177,89,0,1.59175,34.0983,0,302,0,0.00000000,0.00000000,0,0,-255,0,-255,0,0,0,0,23.7,12.79,3.03123,9.75877
178,87,0,1.60184,34.1094,0,307,0,0.00000000,0.00000000,0,0,-255,0,-255,0,0,0,0,23.7,12.79,3.03123,9.75877
179,91,0,1.61191,34.1603,0,300,0,0.00000000,0.00000000,0,0,-255,0,-255,0,0,0,0,23.3,12.79,2.98007,9.80993
180,90,0,1.62177,34.1144,0,279,0,0.00000000,0.00000000,0,0,-255,0,-255,0,0,0,0,23.3,12.79,2.98007,9.80993
181,88,0,1.62961,34.055,0,274,0,0.00000000,0.00000000,0,0,-255,0,-255,0,0,0,0,23.1,12.79,2.95449,9.83551
182,88,0,1.63943,34.06,0,281,0,0.00000000,0.00000000,0,0,-255,0,-255,0,0,0,0,23.1,12.79,2.95449,9.83551
183,88,0,1.64918,34.0514,0,301,0,0.00000000,0.00000000,0,0,-255,0,-255,0,0,0,0,23.5,12.79,3.00565,9.78435
184,88,0,1.65878,34.1015,0,304,0,0.00000000,0.00000000,0,0,-255,0,-255,0,0,0,0,23.5,12.79,3.00565,9.78435
185,90,0,1.66831,34.2239,0,325,0,0.00000000,0.00000000,0,0,-255,0,-255,0,0,0,0,23.5,12.79,3.00565,9.78435
186,90,0,1.67831,34.2789,0,300,0,0.00000000,0.00000000,0,0,-255,0,-255,0,0,0,0,24.1,12.78,3.07998,9.70002
187,90,0,1.68859,34.2945,0,302,0,0.00000000,0.00000000,0,0,-255,0,-255,0,0,0,0,24.4,12.79,3.12076,9.66924
188,89,0,1.69868,34.2648,0,283,0,0.00000000,0.00000000,0,0,-255,0,-255,0,0,0,0,24.4,12.79,3.12076,9.66924
189,89,0,1.70658,34.2442,0,307,0,0.00000000,0.00000000,0,0,-255,0,-255,0,0,0,0,24.5,12.78,3.1311,9.6489
190,89,0,1.7165,34.2255,0,292,0,0.00000000,0.00000000,0,0,-255,0,-255,0,0,0,0,24.5,12.78,3.1311,9.6489
191,88,0,1.7263,34.2141,0,308,0,0.00000000,0.00000000,0,0,-255,0,-255,0,0,0,0,24.7,12.78,3.15666,9.62334
192,88,0,1.73626,34.251,0,303,0,0.00000000,0.00000000,0,0,-255,0,-255,0,0,0,0,24.7,12.78,3.15666,9.62334
193,89,0,1.74593,34.31,0,281,0,0.00000000,0.00000000,0,0,-255,0,-255,0,0,0,0,24.9,12.78,3.18222,9.59778
194,89,0,1.75566,34.2275,0,281,0,0.00000000,0.00000000,0,0,-255,0,-255,0,0,0,0,24.9,12.78,3.18222,9.59778
195,89,0,1.76545,34.2763,0,320,0,0.00000000,0.00000000,0,0,-255,0,-255,0,0,0,0,24.9,12.78,3.18222,9.59778
196,87,0,1.77349,34.2075,0,337,0,0.00000000,0.00000000,0,0,-255,0,-255,0,0,0,0,25,12.79,3.1975,9.5925
197,88,0,1.78385,34.3109,0,299,0,0.00000000,0.00000000,0,0,-255,0,-255,0,0,0,0,25,12.79,3.1975,9.5925
198,89,0,1.79401,34.3093,0,288,0,0.00000000,0.00000000,0,0,-255,0,-255,0,0,0,0,25.1,12.78,3.20778,9.57222
199,88,0,1.80417,34.26,0,290,0,0.00000000,0.00000000,0,0,-255,0,-255,0,0,0,0,25.6,12.79,3.27424,9.51576
200,88,0,1.81222,34.3313,0,320,0,0.00000000,0.00000000,0,0,-255,0,-255,0,0,0,0,25.6,12.79,3.27424,9.51576
201,88,0,1.82191,34.3464,0,301,0,0.00000000,0.00000000,0,0,-255,0,-255,0,0,0,0,25.6,12.79,3.27424,9.51576
202,90,0,1.83156,34.4459,0,295,0,0.00000000,0.00000000,0,0,-255,0,-255,0,0,0,0,25.2,12.79,3.22308,9.56692
203,90,0,1.8413,34.4139,0,297,0,0.00000000,0.00000000,0,0,-255,0,-255,0,0,0,0,25.2,12.79,3.22308,9.56692
204,90,0,1.85101,34.3608,0,283,0,0.00000000,0.00000000,0,0,-255,0,-255,0,0,0,0,25.1,12.79,3.21029,9.57971
205,89,0,1.86071,34.4529,0,308,0,0.00000000,0.00000000,0,0,-255,0,-255,0,0,0,0,25.1,12.78,3.20778,9.57222
206,89,0,1.87047,34.347,0,252,0,0.00000000,0.00000000,0,0,-255,0,-255,0,0,0,0,25.1,12.78,3.20778,9.57222
207,88,0,1.88014,34.3282,0,350,0,0.00000000,0.00000000,0,0,-255,0,-255,0,0,0,0,25.2,12.78,3.22056,9.55944
208,87,0,1.88986,34.3949,0,235,0,0.00000000,0.00000000,0,0,-255,0,-255,0,0,0,0,25.2,12.78,3.22056,9.55944
209,89,0,1.89954,34.3944,0,315,0,0.00000000,0.00000000,0,0,-255,0,-255,0,0,0,0,25.2,12.78,3.22056,9.55944
210,88,0,1.90926,34.3915,0,290,0,0.00000000,0.00000000,0,0,-255,0,-255,0,0,0,0,24.8,12.77,3.16696,9.60304
211,88,0,1.91894,34.3418,0,290,0,0.00000000,0.00000000,0,0,-255,0,-255,0,0,0,0,25.1,12.78,3.20778,9.57222
212,89,0,1.92863,34.3698,0,308,0,0.00000000,0.00000000,0,0,-255,0,-255,0,0,0,0,25.1,12.78,3.20778,9.57222
213,88,0,1.93637,34.3513,0,310,0,0.00000000,0.00000000,0,0,-255,0,-255,0,0,0,0,25.1,12.78,3.20778,9.57222
214,89,0,1.94604,34.3759,0,301,0,0.00000000,0.00000000,0,0,-255,0,-255,0,0,0,0,25.2,12.78,3.22056,9.55944
215,89,0,1.95575,34.3784,0,311,0,0.00000000,0.00000000,0,0,-255,0,-255,0,0,0,0,25.3,12.78,3.23334,9.54666
216,89,0,1.96544,34.3554,0,262,0,0.00000000,0.00000000,0,0,-255,0,-255,0,0,0,0,25.3,12.78,3.23334,9.54666
217,87,0,1.97514,34.3174,0,294,0,0.00000000,0.00000000,0,0,-255,0,-255,0,0,0,0,25.3,12.79,3.23587,9.55413
218,87,0,1.98482,34.294,0,294,0,0.00000000,0.00000000,0,0,-255,0,-255,0,0,0,0,25.3,12.79,3.23587,9.55413
219,88,0,1.99439,34.2791,0,295,0,0.00000000,0.00000000,0,0,-255,0,-255,0,0,0,0,25.2,12.78,3.22056,9.55944
220,87,0,2.00436,34.264,0,295,0,0.00000000,0.00000000,0,0,-255,0,-255,0,0,0,0,25.2,12.78,3.22056,9.55944
221,88,0,2.0142,34.2741,0,297,0,0.00000000,0.00000000,0,0,-255,0,-255,0,0,0,0,24.9,12.78,3.18222,9.59778
222,88,0,2.02389,34.22,0,269,0,0.00000000,0.00000000,0,0,-255,0,-255,0,0,0,0,24.9,12.78,3.18222,9.59778
223,89,0,2.03209,34.2713,0,320,0,0.00000000,0.00000000,0,0,-255,0,-255,0,0,0,0,24.9,12.78,3.18222,9.59778
224,89,0,2.04215,34.3344,0,292,0,0.00000000,0.00000000,0,0,-255,0,-255,0,0,0,0,24.7,12.78,3.15666,9.62334
225,90,0,2.05226,34.3228,0,288,0,0.00000000,0.00000000,0,0,-255,0,-255,0,0,0,0,24.2,12.77,3.09034,9.67966
226,90,0,2.06213,34.281,0,292,0,0.00000000,0.00000000,0,0,-255,0,-255,0,0,0,0,24.2,12.77,3.09034,9.67966
227,89,0,2.07019,34.2588,0,296,0,0.00000000,0.00000000,0,0,-255,0,-255,0,0,0,0,23.8,12.76,3.03688,9.72312
228,89,0,2.07986,34.2666,0,307,0,0.00000000,0.00000000,0,0,-255,0,-255,0,0,0,0,23.8,12.76,3.03688,9.72312
229,89,0,2.08985,34.2768,0,294,0,0.00000000,0.00000000,0,0,-255,0,-255,0,0,0,0,23.8,12.77,3.03926,9.73074
230,89,0,2.09956,34.2918,0,322,0,0.00000000,0.00000000,0,0,-255,0,-255,0,0,0,0,23.8,12.77,3.03926,9.73074
231,90,0,2.10927,34.363,0,311,0,0.00000000,0.00000000,0,0,-255,0,-255,0,0,0,0,24,12.77,3.0648,9.7052
232,90,0,2.11946,34.3422,0,285,0,0.00000000,0.00000000,0,0,-255,0,-255,0,0,0,0,24,12.77,3.0648,9.7052
233,89,0,2.12961,34.3071,0,322,0,0.00000000,0.00000000,0,0,-255,0,-255,0,0,0,0,24.2,12.77,3.09034,9.67966
234,88,0,2.13771,34.3141,0,267,0,0.00000000,0.00000000,0,0,-255,0,-255,0,0,0,0,24.2,12.77,3.09034,9.67966
235,89,0,2.14749,34.1692,0,268,0,0.00000000,0.00000000,0,0,-255,0,-255,0,0,0,0,24.7,12.77,3.15419,9.61581
236,89,0,2.15732,34.161,0,252,0,0.00000000,0.00000000,0,0,-255,0,-255,0,0,0,0,24.7,12.77,3.15419,9.61581
237,89,0,2.16702,34.127,0,321,0,0.00000000,0.00000000,0,0,-255,0,-255,0,0,0,0,24.7,12.77,3.15419,9.61581
238,90,0,2.17703,34.2342,0,312,0,0.00000000,0.00000000,0,0,-255,0,-255,0,0,0,0,24.7,12.77,3.15419,9.61581
239,89,0,2.18671,34.2591,0,282,0,0.00000000,0.00000000,0,0,-255,0,-255,0,0,0,0,23.6,12.73,3.00428,9.72572
240,90,0,2.1965,34.2647,0,289,0,0.00000000,0.00000000,0,0,-255,0,-255,0,0,0,0,23.6,12.73,3.00428,9.72572
241,89,0,2.20613,34.1711,0,277,0,0.00000000,0.00000000,0,0,-255,0,-255,0,0,0,0,23.6,12.73,3.00428,9.72572
242,89,0,2.21396,34.1793,0,309,0,0.00000000,0.00000000,0,0,-255,0,-255,0,0,0,0,23.6,12.73,3.00428,9.72572
243,88,0,2.2237,34.1676,0,279,0,0.00000000,0.00000000,0,0,-255,0,-255,0,0,0,0,23.6,12.73,3.00428,9.72572
244,88,0,2.23397,34.2673,0,320,0,0.00000000,0.00000000,0,0,-255,0,-255,0,0,0,0,23.1,12.73,2.94063,9.78937
245,87,0,2.24407,34.3098,0,298,0,0.00000000,0.00000000,0,0,-255,0,-255,0,0,0,0,22.6,12.72,2.87472,9.84528
246,87,0,2.25214,34.3933,0,324,0,0.00000000,0.00000000,0,0,-255,0,-255,0,0,0,0,22.6,12.72,2.87472,9.84528
247,88,0,2.26229,34.4785,0,314,0,0.00000000,0.00000000,0,0,-255,0,-255,0,0,0,0,22.9,12.73,2.91517,9.81483
248,88,0,2.27226,34.5294,0,314,0,0.00000000,0.00000000,0,0,-255,0,-255,0,0,0,0,22.9,12.73,2.91517,9.81483
249,86,0,2.28201,34.478,0,279,0,0.00000000,0.00000000,0,0,-255,0,-255,0,0,0,0,23.5,12.75,2.99625,9.75375
250,85,0,2.2917,34.4344,0,325,0,0.00000000,0.00000000,0,0,-255,0,-255,0,0,0,0,23.5,12.75,2.99625,9.75375
251,87,0,2.30148,34.4933,0,301,0,0.00000000,0.00000000,0,0,-255,0,-255,0,0,0,0,23.5,12.75,2.99625,9.75375
252,87,0,2.31155,34.5545,0,303,0,0.00000000,0.00000000,0,0,-255,0,-255,0,0,0,0,23.5,12.75,2.99625,9.75375
253,88,0,2.31941,34.5508,0,304,0,0.00000000,0.00000000,0,0,-255,0,-255,0,0,0,0,23.5,12.75,2.99625,9.75375
254,86,0,2.32906,34.4743,0,286,0,0.00000000,0.00000000,0,0,-255,0,-255,0,0,0,0,23.6,12.74,3.00664,9.73336
255,87,0,2.33895,34.4755,0,315,0,0.00000000,0.00000000,0,0,-255,0,-255,0,0,0,0,23.6,12.74,3.00664,9.73336
256,87,0,2.34898,34.53,0,312,0,0.00000000,0.00000000,0,0,-255,0,-255,0,0,0,0,23.6,12.74,3.00664,9.73336
257,87,0,2.35871,34.4884,0,294,0,0.00000000,0.00000000,0,0,-255,0,-255,0,0,0,0,23.6,12.74,3.00664,9.73336
258,87,0,2.36852,34.5241,0,318,0,0.00000000,0.00000000,0,0,-255,0,-255,0,0,0,0,23.5,12.75,2.99625,9.75375
259,86,0,2.37824,34.5334,0,305,0,0.00000000,0.00000000,0,0,-255,0,-255,0,0,0,0,23.5,12.75,2.99625,9.75375
260,88,0,2.38805,34.5694,0,296,0,0.00000000,0.00000000,0,0,-255,0,-255,0,0,0,0,23.5,12.75,2.99625,9.75375
261,88,0,2.39789,34.5384,0,275,0,0.00000000,0.00000000,0,0,-255,0,-255,0,0,0,0,23.5,12.75,2.99625,9.75375
262,87,0,2.40766,34.5263,0,326,0,0.00000000,0.00000000,0,0,-255,0,-255,0,0,0,0,23.3,12.75,2.97075,9.77925
263,87,0,2.41752,34.5986,0,330,0,0.00000000,0.00000000,0,0,-255,0,-255,0,0,0,0,23.3,12.75,2.97075,9.77925
264,88,0,2.42551,34.6731,0,298,0,0.00000000,0.00000000,0,0,-255,0,-255,0,0,0,0,23.6,12.76,3.01136,9.74864
265,88,0,2.43531,34.6589,0,311,0,0.00000000,0.00000000,0,0,-255,0,-255,0,0,0,0,23.7,12.77,3.02649,9.74351
266,89,0,2.4455,34.6927,0,315,0,0.00000000,0.00000000,0,0,-255,0,-255,0,0,0,0,23.7,12.77,3.02649,9.74351
267,89,0,2.45545,34.6914,0,307,0,0.00000000,0.00000000,0,0,-255,0,-255,0,0,0,0,23.7,12.77,3.02649,9.74351
268,89,0,2.46552,34.6356,0,277,0,0.00000000,0.00000000,0,0,-255,0,-255,0,0,0,0,23.8,12.78,3.04164,9.73836
269,87,0,2.47342,34.5701,0,296,0,0.00000000,0.00000000,0,0,-255,0,-255,0,0,0,0,23.8,12.78,3.04164,9.73836
270,88,0,2.48327,34.5855,0,307,0,0.00000000,0.00000000,0,0,-255,0,-255,0,0,0,0,23.8,12.78,3.04164,9.73836
271,87,0,2.493,34.5394,0,270,0,0.00000000,0.00000000,0,0,-255,0,-255,0,0,0,0,23.8,12.78,3.04164,9.73836
272,87,0,2.50273,34.407,0,321,0,0.00000000,0.00000000,0,0,-255,0,-255,0,0,0,0,24,12.78,3.0672,9.7128
273,88,0,2.51244,34.4845,0,296,0,0.00000000,0.00000000,0,0,-255,0,-255,0,0,0,0,24.1,12.78,3.07998,9.70002
274,86,0,2.52221,34.4583,0,298,0,0.00000000,0.00000000,0,0,-255,0,-255,0,0,0,0,24.1,12.78,3.07998,9.70002
275,87,0,2.53193,34.4396,0,307,0,0.00000000,0.00000000,0,0,-255,0,-255,0,0,0,0,24.5,12.78,3.1311,9.6489
276,86,0,2.54164,34.4747,0,311,0,0.00000000,0.00000000,0,0,-255,0,-255,0,0,0,0,24.5,12.78,3.1311,9.6489
277,89,0,2.55135,34.6294,0,351,0,0.00000000,0.00000000,0,0,-255,0,-255,0,0,0,0,24.9,12.78,3.18222,9.59778
278,89,0,2.56145,34.6499,0,294,0,0.00000000,0.00000000,0,0,-255,0,-255,0,0,0,0,24.9,12.78,3.18222,9.59778
279,87,0,2.56954,34.636,0,324,0,0.00000000,0.00000000,0,0,-255,0,-255,0,0,0,0,25.3,12.77,3.23081,9.53919
280,88,0,2.57933,34.7069,0,303,0,0.00000000,0.00000000,0,0,-255,0,-255,0,0,0,0,25.3,12.77,3.23081,9.53919
281,88,0,2.58918,34.7771,0,306,0,0.00000000,0.00000000,0,0,-255,0,-255,0,0,0,0,24.9,12.77,3.17973,9.59027
282,88,0,2.59909,34.7573,0,306,0,0.00000000,0.00000000,0,0,-255,0,-255,0,0,0,0,24.9,12.77,3.17973,9.59027
283,88,0,2.60918,34.7562,0,310,0,0.00000000,0.00000000,0,0,-255,0,-255,0,0,0,0,24.9,12.77,3.17973,9.59027
284,87,0,2.61943,34.728,0,308,0,0.00000000,0.00000000,0,0,-255,0,-255,0,0,0,0,24.4,12.76,3.11344,9.64656
285,85,0,2.62757,34.6927,0,326,0,0.00000000,0.00000000,0,0,-255,0,-255,0,0,0,0,23.2,12.74,2.95568,9.78432
286,87,0,2.6376,34.7937,0,339,0,0.00000000,0.00000000,0,0,-255,0,-255,0,0,0,0,23.2,12.74,2.95568,9.78432
287,88,0,2.64741,34.8367,0,329,0,0.00000000,0.00000000,0,0,-255,0,-255,0,0,0,0,23.2,12.74,2.95568,9.78432
288,88,0,2.65723,34.8619,0,307,0,0.00000000,0.00000000,0,0,-255,0,-255,0,0,0,0,22.6,12.73,2.87698,9.85302
289,89,0,2.66729,34.9117,0,339,0,0.00000000,0.00000000,0,0,-255,0,-255,0,0,0,0,22.6,12.73,2.87698,9.85302
290,88,0,2.67741,34.9087,0,315,0,0.00000000,0.00000000,0,0,-255,0,-255,0,0,0,0,22,12.73,2.8006,9.9294
291,88,0,2.6872,34.9148,0,315,0,0.00000000,0.00000000,0,0,-255,0,-255,0,0,0,0,21.9,12.74,2.79006,9.94994
292,89,0,2.69741,34.8814,0,289,0,0.00000000,0.00000000,0,0,-255,0,-255,0,0,0,0,21.9,12.74,2.79006,9.94994
293,87,0,2.70754,34.8081,0,323,0,0.00000000,0.00000000,0,0,-255,0,-255,0,0,0,0,21.9,12.74,2.79006,9.94994
294,88,0,2.71541,34.847,0,314,0,0.00000000,0.00000000,0,0,-255,0,-255,0,0,0,0,21.9,12.74,2.79006,9.94994
295,87,0,2.72552,34.8204,0,299,0,0.00000000,0.00000000,0,0,-255,0,-255,0,0,0,0,22.5,12.76,2.871,9.889
296,88,0,2.73543,34.8201,0,310,0,0.00000000,0.00000000,0,0,-255,0,-255,0,0,0,0,22.5,12.76,2.871,9.889
297,88,0,2.74518,34.8115,0,309,0,0.00000000,0.00000000,0,0,-255,0,-255,0,0,0,0,22,12.76,2.8072,9.9528
298,89,0,2.75535,34.8593,0,303,0,0.00000000,0.00000000,0,0,-255,0,-255,0,0,0,0,22,12.76,2.8072,9.9528
299,88,0,2.7654,34.8827,0,331,0,0.00000000,0.00000000,0,0,-255,0,-255,0,0,0,0,22.2,12.76,2.83272,9.92728
300,89,0,2.77524,34.8052,0,292,0,0.00000000,0.00000000,0,0,-255,0,-255,0,0,0,0,22.2,12.76,2.83272,9.92728
301,88,0,2.78507,34.8378,0,325,0,0.00000000,0.00000000,0,0,-255,0,-255,0,0,0,0,22.4,12.76,2.85824,9.90176
302,87,0,2.795,34.7407,0,276,0,0.00000000,0.00000000,0,0,-255,0,-255,0,0,0,0,22.4,12.76,2.85824,9.90176
303,86,0,2.80334,34.7268,0,323,0,0.00000000,0.00000000,0,0,-255,0,-255,0,0,0,0,22.3,12.76,2.84548,9.91452
304,86,0,2.81312,34.7488,0,311,0,0.00000000,0.00000000,0,0,-255,0,-255,0,0,0,0,22.3,12.76,2.84548,9.91452
305,87,0,2.82299,34.789,0,366,0,0.00000000,0.00000000,0,0,-255,0,-255,0,0,0,0,22.5,12.76,2.871,9.889
306,93,0,2.83319,35.0193,0,356,0,0.00000000,0.00000000,0,0,-255,0,-255,0,0,0,0,22.5,12.76,2.871,9.889
307,89,0,2.843,34.9094,0,324,0,0.00000000,0.00000000,0,0,-255,0,-255,0,0,0,0,22.3,12.76,2.84548,9.91452
308,89,0,2.85328,34.9344,0,289,0,0.00000000,0.00000000,0,0,-255,0,-255,0,0,0,0,22.3,12.76,2.84548,9.91452
309,88,0,2.863,34.9012,0,323,0,0.00000000,0.00000000,0,0,-255,0,-255,0,0,0,0,22.1,12.77,2.82217,9.94783
310,90,0,2.87102,34.9511,0,306,0,0.00000000,0.00000000,0,0,-255,0,-255,0,0,0,0,22.1,12.77,2.82217,9.94783
311,89,0,2.881,34.9047,0,292,0,0.00000000,0.00000000,0,0,-255,0,-255,0,0,0,0,21.8,12.76,2.78168,9.97832
312,89,0,2.89076,34.8756,0,319,0,0.00000000,0.00000000,0,0,-255,0,-255,0,0,0,0,21.8,12.76,2.78168,9.97832
313,89,0,2.90094,34.9057,0,320,0,0.00000000,0.00000000,0,0,-255,0,-255,0,0,0,0,21.8,12.76,2.78168,9.97832
314,88,0,2.91093,34.8854,0,315,0,0.00000000,0.00000000,0,0,-255,0,-255,0,0,0,0,21.8,12.76,2.78168,9.97832
315,90,0,2.92122,34.8648,0,296,0,0.00000000,0.00000000,0,0,-255,0,-255,0,0,0,0,21.6,12.76,2.75616,10.0038
316,89,0,2.92956,34.8092,0,313,0,0.00000000,0.00000000,0,0,-255,0,-255,0,0,0,0,21.6,12.76,2.75616,10.0038
317,89,0,2.93933,34.8255,0,315,0,0.00000000,0.00000000,0,0,-255,0,-255,0,0,0,0,22.1,12.77,2.82217,9.94783
318,88,0,2.94934,34.8322,0,315,0,0.00000000,0.00000000,0,0,-255,0,-255,0,0,0,0,22.1,12.77,2.82217,9.94783
319,89,0,2.95939,34.8351,0,320,0,0.00000000,0.00000000,0,0,-255,0,-255,0,0,0,0,22.1,12.77,2.82217,9.94783
320,89,0,2.96944,34.863,0,316,0,0.00000000,0.00000000,0,0,-255,0,-255,0,0,0,0,22.1,12.77,2.82217,9.94783
321,89,0,2.97947,34.813,0,300,0,0.00000000,0.00000000,0,0,-255,0,-255,0,0,0,0,22,12.77,2.8094,9.9606
322,90,0,2.98923,34.8186,0,308,0,0.00000000,0.00000000,0,0,-255,0,-255,0,0,0,0,22,12.77,2.8094,9.9606
323,89,0,2.99738,34.8078,0,312,0,0.00000000,0.00000000,0,0,-255,0,-255,0,0,0,0,21.6,12.77,2.75832,10.0117
324,88,0,3.00714,34.755,0,295,0,0.00000000,0.00000000,0,0,-255,0,-255,0,0,0,0,21.6,12.77,2.75832,10.0117
325,89,0,3.01727,34.7702,0,315,0,0.00000000,0.00000000,0,0,-255,0,-255,0,0,0,0,21.3,12.77,2.72001,10.05
326,90,0,3.02751,34.7895,0,299,0,0.00000000,0.00000000,0,0,-255,0,-255,0,0,0,0,21.3,12.77,2.72001,10.05
327,89,0,3.03729,34.7471,0,306,0,0.00000000,0.00000000,0,0,-255,0,-255,0,0,0,0,20.3,12.75,2.58825,10.1617
328,90,0,3.04712,34.7833,0,343,0,0.00000000,0.00000000,0,0,-255,0,-255,0,0,0,0,20.3,12.75,2.58825,10.1617
329,88,0,3.05687,34.7341,0,313,0,0.00000000,0.00000000,0,0,-255,0,-255,0,0,0,0,20.3,12.75,2.58825,10.1617
330,88,0,3.06683,34.7303,0,304,0,0.00000000,0.00000000,0,0,-255,0,-255,0,0,0,0,20,12.75,2.55,10.2
331,88,0,3.07463,34.7352,0,321,0,0.00000000,0.00000000,0,0,-255,0,-255,0,0,0,0,20,12.75,2.55,10.2
332,89,0,3.08471,34.7643,0,283,0,0.00000000,0.00000000,0,0,-255,0,-255,0,0,0,0,20,12.75,2.55,10.2
333,87,0,3.09496,34.6437,0,285,0,0.00000000,0.00000000,0,0,-255,0,-255,0,0,0,0,20.2,12.76,2.57752,10.1825
334,87,0,3.10523,34.6175,0,274,0,0.00000000,0.00000000,0,0,-255,0,-255,0,0,0,0,20.2,12.76,2.57752,10.1825
335,87,0,3.11512,34.6177,0,289,0,0.00000000,0.00000000,0,0,-255,0,-255,0,0,0,0,19.9,12.75,2.53725,10.2127
336,87,0,3.12515,34.6029,0,334,0,0.00000000,0.00000000,0,0,-255,0,-255,0,0,0,0,19.9,12.75,2.53725,10.2127
337,87,0,3.13319,34.4943,0,269,0,0.00000000,0.00000000,0,0,-255,0,-255,0,0,0,0,20.8,12.77,2.65616,10.1138
338,88,0,3.14305,34.4698,0,280,0,0.00000000,0.00000000,0,0,-255,0,-255,0,0,0,0,20.8,12.77,2.65616,10.1138
339,88,0,3.15278,34.3659,0,280,0,0.00000000,0.00000000,0,0,-255,0,-255,0,0,0,0,20.3,12.77,2.59231,10.1777
340,88,0,3.16246,34.3988,0,269,0,0.00000000,0.00000000,0,0,-255,0,-255,0,0,0,0,20.3,12.77,2.59231,10.1777
342,87,0,3.17217,34.3843,0,325,0,0.00000000,0.00000000,0,0,-255,0,-255,0,0,0,0,20.3,12.77,2.59231,10.1777
343,88,0,3.1819,34.4582,0,287,0,0.00000000,0.00000000,0,0,-255,0,-255,0,0,0,0,20.3,12.77,2.59231,10.1777
344,88,0,3.19164,34.4836,0,328,0,0.00000000,0.00000000,0,0,-255,0,-255,0,0,0,0,20,12.77,2.554,10.216
345,87,0,3.20151,34.5028,0,304,0,0.00000000,0.00000000,0,0,-255,0,-255,0,0,0,0,20,12.77,2.554,10.216
346,87,0,3.21156,34.4996,0,302,0,0.00000000,0.00000000,0,0,-255,0,-255,0,0,0,0,20.1,12.76,2.56476,10.1952
347,87,0,3.22128,34.5255,0,310,0,0.00000000,0.00000000,0,0,-255,0,-255,0,0,0,0,19.6,12.74,2.49704,10.243
348,87,0,3.23119,34.4986,0,275,0,0.00000000,0.00000000,0,0,-255,0,-255,0,0,0,0,19.6,12.74,2.49704,10.243
349,87,0,3.24091,34.5051,0,307,0,0.00000000,0.00000000,0,0,-255,0,-255,0,0,0,0,19.6,12.74,2.49704,10.243
350,88,0,3.2488,34.5345,0,318,0,0.00000000,0.00000000,0,0,-255,0,-255,0,0,0,0,19.6,12.74,2.49704,10.243
351,88,0,3.25872,34.5969,0,318,0,0.00000000,0.00000000,0,0,-255,0,-255,0,0,0,0,19.6,12.74,2.49704,10.243
352,87,0,3.26851,34.6098,0,317,0,0.00000000,0.00000000,0,0,-255,0,-255,0,0,0,0,19.2,12.73,2.44416,10.2858
353,88,0,3.27845,34.6747,0,325,0,0.00000000,0.00000000,0,0,-255,0,-255,0,0,0,0,19.2,12.73,2.44416,10.2858
354,88,0,3.28825,34.6829,0,302,0,0.00000000,0.00000000,0,0,-255,0,-255,0,0,0,0,19.3,12.74,2.45882,10.2812
355,87,0,3.29851,34.6374,0,297,0,0.00000000,0.00000000,0,0,-255,0,-255,0,0,0,0,18.8,12.74,2.39512,10.3449
356,88,0,3.30835,34.6794,0,328,0,0.00000000,0.00000000,0,0,-255,0,-255,0,0,0,0,18.8,12.74,2.39512,10.3449
357,88,0,3.31841,34.7104,0,309,0,0.00000000,0.00000000,0,0,-255,0,-255,0,0,0,0,19.2,12.76,2.44992,10.3101
358,88,0,3.32818,34.7349,0,314,0,0.00000000,0.00000000,0,0,-255,0,-255,0,0,0,0,19.2,12.76,2.44992,10.3101
359,89,0,3.33609,34.7731,0,329,0,0.00000000,0.00000000,0,0,-255,0,-255,0,0,0,0,19.2,12.76,2.44992,10.3101
360,88,0,3.34591,34.6655,0,282,0,0.00000000,0.00000000,0,0,-255,0,-255,0,0,0,0,19.2,12.77,2.45184,10.3182
361,88,0,3.35557,34.6794,0,342,0,0.00000000,0.00000000,0,0,-255,0,-255,0,0,0,0,19.2,12.77,2.45184,10.3182
362,87,0,3.36569,34.7011,0,313,0,0.00000000,0.00000000,0,0,-255,0,-255,0,0,0,0,19.1,12.77,2.43907,10.3309
363,89,0,3.37593,34.8321,0,358,0,0.00000000,0.00000000,0,0,-255,0,-255,0,0,0,0,19.2,12.77,2.45184,10.3182
364,88,0,3.38625,34.899,0,295,0,0.00000000,0.00000000,0,0,-255,0,-255,0,0,0,0,19.2,12.77,2.45184,10.3182
365,89,0,3.39425,34.9764,0,327,0,0.00000000,0.00000000,0,0,-255,0,-255,0,0,0,0,19.2,12.77,2.45184,10.3182
366,88,0,3.40425,35.0098,0,321,0,0.00000000,0.00000000,0,0,-255,0,-255,0,0,0,0,19.6,12.77,2.50292,10.2671
367,89,0,3.41445,35.0609,0,336,0,0.00000000,0.00000000,0,0,-255,0,-255,0,0,0,0,19.6,12.77,2.50292,10.2671
368,89,0,3.42486,35.0994,0,290,0,0.00000000,0.00000000,0,0,-255,0,-255,0,0,0,0,19.9,12.77,2.54123,10.2288
369,89,0,3.4352,35.0393,0,320,0,0.00000000,0.00000000,0,0,-255,0,-255,0,0,0,0,19.7,12.76,2.51372,10.2463
370,89,0,3.44337,35.0443,0,318,0,0.00000000,0.00000000,0,0,-255,0,-255,0,0,0,0,19.7,12.76,2.51372,10.2463
371,89,0,3.45339,35.0432,0,314,0,0.00000000,0.00000000,0,0,-255,0,-255,0,0,0,0,19.7,12.76,2.51372,10.2463
372,89,0,3.46346,35.0471,0,320,0,0.00000000,0.00000000,0,0,-255,0,-255,0,0,0,0,20.1,12.76,2.56476,10.1952
373,88,0,3.47352,35.0718,0,325,0,0.00000000,0.00000000,0,0,-255,0,-255,0,0,0,0,20.3,12.76,2.59028,10.1697
374,88,0,3.48341,35.0667,0,314,0,0.00000000,0.00000000,0,0,-255,0,-255,0,0,0,0,20.3,12.76,2.59028,10.1697
375,88,0,3.4935,35.0581,0,304,0,0.00000000,0.00000000,0,0,-255,0,-255,0,0,0,0,20.4,12.76,2.60304,10.157
376,86,0,3.5015,35.089,0,339,0,0.00000000,0.00000000,0,0,-255,0,-255,0,0,0,0,20.4,12.76,2.60304,10.157
377,89,0,3.51197,35.2288,0,349,0,0.00000000,0.00000000,0,0,-255,0,-255,0,0,0,0,20.4,12.76,2.60304,10.157
378,88,0,3.52225,35.2409,0,330,0,0.00000000,0.00000000,0,0,-255,0,-255,0,0,0,0,20.4,12.76,2.60304,10.157
379,90,0,3.53249,35.3007,0,346,0,0.00000000,0.00000000,0,0,-255,0,-255,0,0,0,0,20.4,12.76,2.60304,10.157
380,90,0,3.54248,35.3059,0,316,0,0.00000000,0.00000000,0,0,-255,0,-255,0,0,0,0,20.7,12.77,2.64339,10.1266
381,88,0,3.55088,35.3036,0,324,0,0.00000000,0.00000000,0,0,-255,0,-255,0,0,0,0,20.7,12.77,2.64339,10.1266
382,88,0,3.56083,35.2781,0,322,0,0.00000000,0.00000000,0,0,-255,0,-255,0,0,0,0,20.9,12.77,2.66893,10.1011
383,88,0,3.57073,35.2111,0,302,0,0.00000000,0.00000000,0,0,-255,0,-255,0,0,0,0,20.7,12.77,2.64339,10.1266
384,88,0,3.58064,35.2397,0,294,0,0.00000000,0.00000000,0,0,-255,0,-255,0,0,0,0,20.7,12.77,2.64339,10.1266
385,89,0,3.59067,35.1492,0,301,0,0.00000000,0.00000000,0,0,-255,0,-255,0,0,0,0,20.7,12.77,2.64339,10.1266
386,88,0,3.6006,35.0812,0,326,0,0.00000000,0.00000000,0,0,-255,0,-255,0,0,0,0,20.7,12.77,2.64339,10.1266
387,87,0,3.61097,35.0479,0,319,0,0.00000000,0.00000000,0,0,-255,0,-255,0,0,0,0,20.4,12.77,2.60508,10.1649
388,88,0,3.62113,35.0509,0,315,0,0.00000000,0.00000000,0,0,-255,0,-255,0,0,0,0,20.4,12.77,2.60508,10.1649
389,89,0,3.63135,35.0816,0,325,0,0.00000000,0.00000000,0,0,-255,0,-255,0,0,0,0,20.8,12.77,2.65616,10.1138
390,88,0,3.64139,35.119,0,327,0,0.00000000,0.00000000,0,0,-255,0,-255,0,0,0,0,20.8,12.77,2.65616,10.1138
391,87,0,3.64977,35.1498,0,327,0,0.00000000,0.00000000,0,0,-255,0,-255,0,0,0,0,20.8,12.77,2.65616,10.1138
392,88,0,3.66,35.1195,0,294,0,0.00000000,0.00000000,0,0,-255,0,-255,0,0,0,0,20.7,12.77,2.64339,10.1266
393,87,0,3.67034,35.062,0,319,0,0.00000000,0.00000000,0,0,-255,0,-255,0,0,0,0,20.8,12.77,2.65616,10.1138
394,86,0,3.68032,35.1272,0,391,0,0.00000000,0.00000000,0,0,-255,0,-255,0,0,0,0,20.8,12.77,2.65616,10.1138
395,86,0,3.69035,35.1228,0,304,0,0.00000000,0.00000000,0,0,-255,0,-255,0,0,0,0,19.7,12.75,2.51175,10.2383
396,89,0,3.7004,35.0876,0,373,0,0.00000000,0.00000000,0,0,-255,0,-255,0,0,0,0,19.7,12.75,2.51175,10.2383
397,88,0,3.71035,35.1658,0,332,0,0.00000000,0.00000000,0,0,-255,0,-255,0,0,0,0,19.4,12.75,2.4735,10.2765
398,88,0,3.72022,35.1518,0,284,0,0.00000000,0.00000000,0,0,-255,0,-255,0,0,0,0,19.4,12.75,2.4735,10.2765
399,88,0,3.72844,35.1951,0,338,0,0.00000000,0.00000000,0,0,-255,0,-255,0,0,0,0,19.4,12.75,2.4735,10.2765
400,88,0,3.73847,35.0369,0,280,0,0.00000000,0.00000000,0,0,-255,0,-255,0,0,0,0,18.8,12.75,2.397,10.353
401,89,0,3.74837,35.1322,0,324,0,0.00000000,0.00000000,0,0,-255,0,-255,0,0,0,0,18.4,12.74,2.34416,10.3958
402,88,0,3.75828,35.1329,0,332,0,0.00000000,0.00000000,0,0,-255,0,-255,0,0,0,0,18.4,12.74,2.34416,10.3958
403,89,0,3.7681,35.2364,0,353,0,0.00000000,0.00000000,0,0,-255,0,-255,0,0,0,0,18.6,12.74,2.36964,10.3704
404,87,0,3.77812,35.2222,0,341,0,0.00000000,0.00000000,0,0,-255,0,-255,0,0,0,0,18.6,12.74,2.36964,10.3704
405,87,0,3.78806,35.1878,0,288,0,0.00000000,0.00000000,0,0,-255,0,-255,0,0,0,0,19.4,12.75,2.4735,10.2765
406,85,0,3.79799,35.294,0,367,0,0.00000000,0.00000000,0,0,-255,0,-255,0,0,0,0,19.4,12.75,2.4735,10.2765
407,87,0,3.80815,35.3379,0,342,0,0.00000000,0.00000000,0,0,-255,0,-255,0,0,0,0,19.6,12.75,2.499,10.251
408,89,0,3.81809,35.3093,0,322,0,0.00000000,0.00000000,0,0,-255,0,-255,0,0,0,0,19.6,12.75,2.499,10.251
409,88,0,3.82807,35.2779,0,271,0,0.00000000,0.00000000,0,0,-255,0,-255,0,0,0,0,19.6,12.75,2.499,10.251
410,86,0,3.83603,35.2183,0,312,0,0.00000000,0.00000000,0,0,-255,0,-255,0,0,0,0,19.2,12.75,2.448,10.302
411,89,0,3.84584,35.2945,0,354,0,0.00000000,0.00000000,0,0,-255,0,-255,0,0,0,0,19.2,12.75,2.448,10.302
412,90,0,3.85591,35.388,0,335,0,0.00000000,0.00000000,0,0,-255,0,-255,0,0,0,0,19.3,12.75,2.46075,10.2892
413,89,0,3.86599,35.3608,0,305,0,0.00000000,0.00000000,0,0,-255,0,-255,0,0,0,0,18.8,12.75,2.397,10.353
414,89,0,3.87644,35.3486,0,300,0,0.00000000,0.00000000,0,0,-255,0,-255,0,0,0,0,18.8,12.75,2.397,10.353
415,89,0,3.88671,35.3059,0,346,0,0.00000000,0.00000000,0,0,-255,0,-255,0,0,0,0,19.2,12.75,2.448,10.302
416,90,0,3.89494,35.2935,0,305,0,0.00000000,0.00000000,0,0,-255,0,-255,0,0,0,0,19.2,12.75,2.448,10.302
417,90,0,3.90518,35.3727,0,345,0,0.00000000,0.00000000,0,0,-255,0,-255,0,0,0,0,19.2,12.75,2.448,10.302
418,88,0,3.91511,35.381,0,326,0,0.00000000,0.00000000,0,0,-255,0,-255,0,0,0,0,19.4,12.75,2.4735,10.2765
419,88,0,3.92514,35.383,0,326,0,0.00000000,0.00000000,0,0,-255,0,-255,0,0,0,0,20,12.74,2.548,10.192
420,89,0,3.93513,35.4095,0,326,0,0.00000000,0.00000000,0,0,-255,0,-255,0,0,0,0,20,12.74,2.548,10.192
421,89,0,3.94512,35.348,0,343,0,0.00000000,0.00000000,0,0,-255,0,-255,0,0,0,0,20.5,12.74,2.6117,10.1283
422,88,0,3.95531,35.2962,0,285,0,0.00000000,0.00000000,0,0,-255,0,-255,0,0,0,0,20.5,12.74,2.6117,10.1283
423,87,0,3.96529,35.3094,0,306,0,0.00000000,0.00000000,0,0,-255,0,-255,0,0,0,0,21.3,12.75,2.71575,10.0343
424,87,0,3.9754,35.2703,0,332,0,0.00000000,0.00000000,0,0,-255,0,-255,0,0,0,0,21.3,12.75,2.71575,10.0343
425,86,0,3.98359,35.2012,0,300,0,0.00000000,0.00000000,0,0,-255,0,-255,0,0,0,0,21.3,12.75,2.71575,10.0343
426,88,0,3.99423,35.2841,0,337,0,0.00000000,0.00000000,0,0,-255,0,-255,0,0,0,0,21.4,12.74,2.72636,10.0136
427,88,0,4.00446,35.297,0,316,0,0.00000000,0.00000000,0,0,-255,0,-255,0,0,0,0,22,12.75,2.805,9.945
428,85,0,4.01466,35.1866,0,353,0,0.00000000,0.00000000,0,0,-255,0,-255,0,0,0,0,22,12.75,2.805,9.945
429,86,0,4.02326,35.3031,0,347,0,0.00000000,0.00000000,0,0,-255,0,-255,0,0,0,0,22.3,12.77,2.84771,9.92229
430,88,0,4.03351,35.3204,0,299,0,0.00000000,0.00000000,0,0,-255,0,-255,0,0,0,0,22.3,12.77,2.84771,9.92229
431,87,0,4.04378,35.2061,0,299,0,0.00000000,0.00000000,0,0,-255,0,-255,0,0,0,0,22.2,12.77,2.83494,9.93506
432,87,0,4.05374,35.2285,0,329,0,0.00000000,0.00000000,0,0,-255,0,-255,0,0,0,0,22.2,12.77,2.83494,9.93506
433,87,0,4.06363,35.225,0,320,0,0.00000000,0.00000000,0,0,-255,0,-255,0,0,0,0,21.2,12.75,2.703,10.047
434,86,0,4.07374,35.2443,0,314,0,0.00000000,0.00000000,0,0,-255,0,-255,0,0,0,0,21.2,12.75,2.703,10.047
435,87,0,4.08186,35.2254,0,321,0,0.00000000,0.00000000,0,0,-255,0,-255,0,0,0,0,20.3,12.74,2.58622,10.1538
436,89,0,4.09211,35.272,0,336,0,0.00000000,0.00000000,0,0,-255,0,-255,0,0,0,0,20.3,12.74,2.58622,10.1538
437,87,0,4.1025,35.3169,0,304,0,0.00000000,0.00000000,0,0,-255,0,-255,0,0,0,0,20,12.74,2.548,10.192
438,85,0,4.11255,35.2423,0,335,0,0.00000000,0.00000000,0,0,-255,0,-255,0,0,0,0,20,12.74,2.548,10.192
439,86,0,4.12265,35.2745,0,329,0,0.00000000,0.00000000,0,0,-255,0,-255,0,0,0,0,19.4,12.73,2.46962,10.2604
440,86,0,4.13267,35.3115,0,336,0,0.00000000,0.00000000,0,0,-255,0,-255,0,0,0,0,19.4,12.73,2.46962,10.2604
441,86,0,4.14283,35.2746,0,317,0,0.00000000,0.00000000,0,0,-255,0,-255,0,0,0,0,19,12.73,2.4187,10.3113
442,86,0,4.15082,35.2536,0,317,0,0.00000000,0.00000000,0,0,-255,0,-255,0,0,0,0,19,12.73,2.4187,10.3113
443,88,0,4.16079,35.2934,0,308,0,0.00000000,0.00000000,0,0,-255,0,-255,0,0,0,0,19,12.73,2.4187,10.3113
444,88,0,4.17074,35.2287,0,309,0,0.00000000,0.00000000,0,0,-255,0,-255,0,0,0,0,19.4,12.74,2.47156,10.2684
445,87,0,4.18072,35.2135,0,322,0,0.00000000,0.00000000,0,0,-255,0,-255,0,0,0,0,20.1,12.75,2.56275,10.1872
446,87,0,4.19091,35.1722,0,328,0,0.00000000,0.00000000,0,0,-255,0,-255,0,0,0,0,20.1,12.75,2.56275,10.1872
447,87,0,4.20082,35.2203,0,334,0,0.00000000,0.00000000,0,0,-255,0,-255,0,0,0,0,20.1,12.75,2.56275,10.1872
448,87,0,4.21103,35.192,0,308,0,0.00000000,0.00000000,0,0,-255,0,-255,0,0,0,0,20.1,12.75,2.56275,10.1872
449,87,0,4.22109,35.1494,0,296,0,0.00000000,0.00000000,0,0,-255,0,-255,0,0,0,0,20.1,12.75,2.56275,10.1872
450,86,0,4.23103,35.0808,0,323,0,0.00000000,0.00000000,0,0,-255,0,-255,0,0,0,0,20.1,12.75,2.56275,10.1872
451,87,0,4.24093,35.1555,0,320,0,0.00000000,0.00000000,0,0,-255,0,-255,0,0,0,0,20.1,12.75,2.56275,10.1872
452,86,0,4.24886,35.1561,0,320,0,0.00000000,0.00000000,0,0,-255,0,-255,0,0,0,0,20.1,12.75,2.56275,10.1872
453,87,0,4.25895,35.2125,0,313,0,0.00000000,0.00000000,0,0,-255,0,-255,0,0,0,0,20.1,12.75,2.56275,10.1872
454,85,0,4.26889,35.0555,0,416,0,0.00000000,0.00000000,0,0,-255,0,-255,0,0,0,0,20,12.77,2.554,10.216
455,88,0,4.27908,35.3581,0,355,0,0.00000000,0.00000000,0,0,-255,0,-255,0,0,0,0,19.5,12.77,2.49015,10.2798
456,88,0,4.28907,35.2605,0,282,0,0.00000000,0.00000000,0,0,-255,0,-255,0,0,0,0,19.5,12.77,2.49015,10.2798
457,90,0,4.29897,35.3809,0,327,0,0.00000000,0.00000000,0,0,-255,0,-255,0,0,0,0,19,12.76,2.4244,10.3356
458,88,0,4.30896,35.3644,0,310,0,0.00000000,0.00000000,0,0,-255,0,-255,0,0,0,0,19,12.76,2.4244,10.3356
459,88,0,4.31914,35.2802,0,291,0,0.00000000,0.00000000,0,0,-255,0,-255,0,0,0,0,18.4,12.77,2.34968,10.4203
460,90,0,4.32916,35.5349,0,294,0,0.00000000,0.00000000,0,0,-255,0,-255,0,0,0,0,18.4,12.77,2.34968,10.4203
461,88,0,4.33952,35.5015,0,347,0,0.00000000,0.00000000,0,0,-255,0,-255,0,0,0,0,16.7,12.73,2.12591,10.6041
462,88,0,4.34804,35.4731,0,306,0,0.00000000,0.00000000,0,0,-255,0,-255,0,0,0,0,16.7,12.73,2.12591,10.6041
463,89,0,4.35881,35.4439,0,328,0,0.00000000,0.00000000,0,0,-255,0,-255,0,0,0,0,16.6,12.74,2.11484,10.6252
464,89,0,4.36929,35.484,0,339,0,0.00000000,0.00000000,0,0,-255,0,-255,0,0,0,0,16.6,12.74,2.11484,10.6252
465,87,0,4.37735,35.4342,0,302,0,0.00000000,0.00000000,0,0,-255,0,-255,0,0,0,0,16.4,12.74,2.08936,10.6506
466,88,0,4.3873,35.5565,0,376,0,0.00000000,0.00000000,0,0,-255,0,-255,0,0,0,0,16.4,12.74,2.08936,10.6506
467,85,0,4.39733,35.4303,0,341,0,0.00000000,0.00000000,0,0,-255,0,-255,0,0,0,0,16.5,12.75,2.10375,10.6463
468,86,0,4.40743,35.5004,0,356,0,0.00000000,0.00000000,0,0,-255,0,-255,0,0,0,0,16.5,12.75,2.10375,10.6463
469,87,0,4.41766,35.5814,0,344,0,0.00000000,0.00000000,0,0,-255,0,-255,0,0,0,0,16.5,12.75,2.10375,10.6463
470,87,0,4.42776,35.5604,0,309,0,0.00000000,0.00000000,0,0,-255,0,-255,0,0,0,0,16.7,12.76,2.13092,10.6291
471,87,0,4.43794,35.5592,0,346,0,0.00000000,0.00000000,0,0,-255,0,-255,0,0,0,0,17.8,12.79,2.27662,10.5134
472,86,0,4.44791,35.6097,0,340,0,0.00000000,0.00000000,0,0,-255,0,-255,0,0,0,0,17.8,12.79,2.27662,10.5134
473,87,0,4.45816,35.6113,0,328,0,0.00000000,0.00000000,0,0,-255,0,-255,0,0,0,0,15.2,12.71,1.93192,10.7781
474,89,0,4.4682,35.6052,0,312,0,0.00000000,0.00000000,0,0,-255,0,-255,0,0,0,0,15.2,12.71,1.93192,10.7781
475,89,0,4.4784,35.6256,0,346,0,0.00000000,0.00000000,0,0,-255,0,-255,0,0,0,0,15.5,12.7,1.9685,10.7315
476,89,0,4.48637,35.6327,0,314,0,0.00000000,0.00000000,0,0,-255,0,-255,0,0,0,0,15.5,12.7,1.9685,10.7315
477,89,0,4.49653,35.6564,0,348,0,0.00000000,0.00000000,0,0,-255,0,-255,0,0,0,0,16.1,12.7,2.0447,10.6553
478,90,0,4.50672,35.6867,0,329,0,0.00000000,0.00000000,0,0,-255,0,-255,0,0,0,0,16.1,12.7,2.0447,10.6553
479,89,0,4.51677,35.6276,0,319,0,0.00000000,0.00000000,0,0,-255,0,-255,0,0,0,0,15.9,12.69,2.01771,10.6723
480,89,0,4.52678,35.6198,0,339,0,0.00000000,0.00000000,0,0,-255,0,-255,0,0,0,0,15.9,12.69,2.01771,10.6723
481,89,0,4.53697,35.5683,0,358,0,0.00000000,0.00000000,0,0,-255,0,-255,0,0,0,0,16.1,12.69,2.04309,10.6469
482,88,0,4.54732,35.5859,0,312,0,0.00000000,0.00000000,0,0,-255,0,-255,0,0,0,0,16.1,12.69,2.04309,10.6469
483,89,0,4.55743,35.5437,0,341,0,0.00000000,0.00000000,0,0,-255,0,-255,0,0,0,0,17.9,12.75,2.28225,10.4678
484,89,0,4.56746,35.5504,0,326,0,0.00000000,0.00000000,0,0,-255,0,-255,0,0,0,0,17.9,12.75,2.28225,10.4678
485,88,0,4.57538,35.4253,0,276,0,0.00000000,0.00000000,0,0,-255,0,-255,0,0,0,0,17.5,12.75,2.23125,10.5188
486,87,0,4.58546,35.4896,0,349,0,0.00000000,0.00000000,0,0,-255,0,-255,0,0,0,0,17.5,12.75,2.23125,10.5188
487,87,0,4.59571,35.4958,0,316,0,0.00000000,0.00000000,0,0,-255,0,-255,0,0,0,0,16.9,12.75,2.15475,10.5953
488,88,0,4.60594,35.5543,0,345,0,0.00000000,0.00000000,0,0,-255,0,-255,0,0,0,0,16.9,12.75,2.15475,10.5953
489,88,0,4.61612,35.5954,0,337,0,0.00000000,0.00000000,0,0,-255,0,-255,0,0,0,0,16.8,12.75,2.142,10.608
490,88,0,4.62633,35.5932,0,326,0,0.00000000,0.00000000,0,0,-255,0,-255,0,0,0,0,16.8,12.75,2.142,10.608
491,88,0,4.63629,35.5901,0,334,0,0.00000000,0.00000000,0,0,-255,0,-255,0,0,0,0,16.5,12.75,2.10375,10.6463
492,87,0,4.64646,35.6643,0,355,0,0.00000000,0.00000000,0,0,-255,0,-255,0,0,0,0,16.5,12.75,2.10375,10.6463
493,89,0,4.65488,35.7146,0,333,0,0.00000000,0.00000000,0,0,-255,0,-255,0,0,0,0,17.3,12.78,2.21094,10.5691
494,89,0,4.66499,35.7658,0,351,0,0.00000000,0.00000000,0,0,-255,0,-255,0,0,0,0,17.3,12.78,2.21094,10.5691
495,90,0,4.67519,35.7935,0,346,0,0.00000000,0.00000000,0,0,-255,0,-255,0,0,0,0,16.9,12.78,2.15982,10.6202
496,89,0,4.68545,35.8291,0,329,0,0.00000000,0.00000000,0,0,-255,0,-255,0,0,0,0,16.9,12.78,2.15982,10.6202
497,89,0,4.69557,35.8454,0,352,0,0.00000000,0.00000000,0,0,-255,0,-255,0,0,0,0,16.7,12.78,2.13426,10.6457
498,89,0,4.70566,35.8823,0,331,0,0.00000000,0.00000000,0,0,-255,0,-255,0,0,0,0,16.7,12.78,2.13426,10.6457
499,89,0,4.71599,35.829,0,322,0,0.00000000,0.00000000,0,0,-255,0,-255,0,0,0,0,16.8,12.78,2.14704,10.633
500,89,0,4.72625,35.8345,0,353,0,0.00000000,0.00000000,0,0,-255,0,-255,0,0,0,0,16.8,12.78,2.14704,10.633
501,89,0,4.73461,35.8903,0,350,0,0.00000000,0.00000000,0,0,-255,0,-255,0,0,0,0,16.9,12.78,2.15982,10.6202
502,88,0,4.74484,35.7772,0,298,0,0.00000000,0.00000000,0,0,-255,0,-255,0,0,0,0,16.9,12.78,2.15982,10.6202
503,88,0,4.75505,35.8507,0,374,0,0.00000000,0.00000000,0,0,-255,0,-255,0,0,0,0,16.9,12.78,2.15982,10.6202
504,88,0,4.76531,35.9035,0,352,0,0.00000000,0.00000000,0,0,-255,0,-255,0,0,0,0,16.8,12.78,2.14704,10.633
505,88,0,4.77563,35.9092,0,343,0,0.00000000,0.00000000,0,0,-255,0,-255,0,0,0,0,17,12.79,2.1743,10.6157
506,87,0,4.78573,35.8673,0,325,0,0.00000000,0.00000000,0,0,-255,0,-255,0,0,0,0,17,12.79,2.1743,10.6157
507,89,0,4.79589,35.8483,0,292,0,0.00000000,0.00000000,0,0,-255,0,-255,0,0,0,0,17.3,12.79,2.21267,10.5773
508,87,0,4.80418,35.7807,0,362,0,0.00000000,0.00000000,0,0,-255,0,-255,0,0,0,0,17.3,12.79,2.21267,10.5773
509,88,0,4.81446,35.5806,0,284,0,0.00000000,0.00000000,0,0,-255,0,-255,0,0,0,0,17.1,12.8,2.1888,10.6112
510,86,0,4.82464,35.6458,0,377,0,0.00000000,0.00000000,0,0,-255,0,-255,0,0,0,0,17.1,12.8,2.1888,10.6112
511,86,0,4.83485,35.6519,0,291,0,0.00000000,0.00000000,0,0,-255,0,-255,0,0,0,0,16.9,12.8,2.1632,10.6368
512,89,0,4.84518,35.6413,0,334,0,0.00000000,0.00000000,0,0,-255,0,-255,0,0,0,0,16.9,12.8,2.1632,10.6368
513,89,0,4.85544,35.6102,0,352,0,0.00000000,0.00000000,0,0,-255,0,-255,0,0,0,0,16.3,12.81,2.08803,10.722
514,89,0,4.8655,35.6419,0,309,0,0.00000000,0.00000000,0,0,-255,0,-255,0,0,0,0,16.3,12.81,2.08803,10.722
515,88,0,4.87372,35.8159,0,391,0,0.00000000,0.00000000,0,0,-255,0,-255,0,0,0,0,16.1,12.81,2.06241,10.7476
516,88,0,4.88426,35.8238,0,308,0,0.00000000,0.00000000,0,0,-255,0,-255,0,0,0,0,16.1,12.81,2.06241,10.7476
517,90,0,4.89464,35.7986,0,414,0,0.00000000,0.00000000,0,0,-255,0,-255,0,0,0,0,15.8,12.81,2.02398,10.786
518,93,0,4.90496,36.0904,0,307,0,0.00000000,0.00000000,0,0,-255,0,-255,0,0,0,0,15.8,12.81,2.02398,10.786
519,91,0,4.91531,35.9622,0,359,0,0.00000000,0.00000000,0,0,-255,0,-255,0,0,0,0,16,12.82,2.0512,10.7688
520,90,0,4.92347,36.0124,0,325,0,0.00000000,0.00000000,0,0,-255,0,-255,0,0,0,0,16,12.82,2.0512,10.7688
521,90,0,4.93353,35.9179,0,318,0,0.00000000,0.00000000,0,0,-255,0,-255,0,0,0,0,16,12.82,2.0512,10.7688
522,88,0,4.94402,35.842,0,324,0,0.00000000,0.00000000,0,0,-255,0,-255,0,0,0,0,15.2,12.78,1.94256,10.8374
523,89,0,4.95427,35.8411,0,365,0,0.00000000,0.00000000,0,0,-255,0,-255,0,0,0,0,15.5,12.78,1.9809,10.7991
524,87,0,4.96479,35.8399,0,348,0,0.00000000,0.00000000,0,0,-255,0,-255,0,0,0,0,15.5,12.78,1.9809,10.7991
525,89,0,4.97488,35.8481,0,292,0,0.00000000,0.00000000,0,0,-255,0,-255,0,0,0,0,15.9,12.78,2.03202,10.748
526,88,0,4.9851,35.7195,0,343,0,0.00000000,0.00000000,0,0,-255,0,-255,0,0,0,0,15.9,12.78,2.03202,10.748
527,89,0,4.99338,35.759,0,346,0,0.00000000,0.00000000,0,0,-255,0,-255,0,0,0,0,16.1,12.78,2.05758,10.7224
528,89,0,5.00345,35.7451,0,301,0,0.00000000,0.00000000,0,0,-255,0,-255,0,0,0,0,16.1,12.78,2.05758,10.7224
529,90,0,5.01351,35.6253,0,364,0,0.00000000,0.00000000,0,0,-255,0,-255,0,0,0,0,16,12.78,2.0448,10.7352
530,90,0,5.02357,35.5678,0,301,0,0.00000000,0.00000000,0,0,-255,0,-255,0,0,0,0,16,12.78,2.0448,10.7352
531,88,0,5.03355,35.5537,0,345,0,0.00000000,0.00000000,0,0,-255,0,-255,0,0,0,0,16,12.78,2.0448,10.7352
532,88,0,5.04354,35.5569,0,295,0,0.00000000,0.00000000,0,0,-255,0,-255,0,0,0,0,16.9,12.82,2.16658,10.6534
533,88,0,5.05357,35.472,0,346,0,0.00000000,0.00000000,0,0,-255,0,-255,0,0,0,0,16.9,12.82,2.16658,10.6534
534,89,0,5.06385,35.4987,0,363,0,0.00000000,0.00000000,0,0,-255,0,-255,0,0,0,0,16.9,12.82,2.16658,10.6534
535,88,0,5.07394,35.5849,0,334,0,0.00000000,0.00000000,0,0,-255,0,-255,0,0,0,0,16.9,12.82,2.16658,10.6534
536,88,0,5.08399,35.5638,0,320,0,0.00000000,0.00000000,0,0,-255,0,-255,0,0,0,0,16.8,12.82,2.15376,10.6662
537,86,0,5.092,35.5096,0,281,0,0.00000000,0.00000000,0,0,-255,0,-255,0,0,0,0,16.5,12.82,2.1153,10.7047
538,85,0,5.10195,35.4688,0,335,0,0.00000000,0.00000000,0,0,-255,0,-255,0,0,0,0,16.5,12.82,2.1153,10.7047
539,83,0,5.11206,35.258,0,275,0,0.00000000,0.00000000,0,0,-255,0,-255,0,0,0,0,16.7,12.82,2.14094,10.6791
540,73,0,5.12227,34.7954,0,172,0,0.00000000,0.00000000,0,0,-255,0,-255,0,0,0,0,16.7,12.82,2.14094,10.6791
541,0,0,5.13229,33.8756,0,0,0,0.00000000,0.00000000,0,0,-255,0,-255,0,0,0,0,17.9,12.83,2.29657,10.5334
542,0,0,5.14195,32.4628,0,0,0,0.00000000,0.00000000,0,0,-255,0,-255,0,0,0,0,17.9,12.83,2.29657,10.5334
543,0,0,5.14945,31.3972,0,0,0,0.00000000,0.00000000,0,0,-255,0,-255,0,0,0,0,18.8,12.83,2.41204,10.418
544,0,0,5.15838,30.1648,0,0,0,0.00000000,0.00000000,0,0,-255,0,-255,0,0,0,0,18.8,12.83,2.41204,10.418
545,0,0,5.16686,29.0282,0,0,0,0.00000000,0.00000000,0,0,-255,0,-255,0,0,0,0,18.8,12.83,2.41204,10.418
546,0,0,5.17502,27.9642,0,0,0,0.00000000,0.00000000,0,0,-255,0,-255,0,0,0,0,20,12.84,2.568,10.272
547,0,0,5.18285,26.9686,0,0,0,0.00000000,0.00000000,0,0,-255,0,-255,0,0,0,0,20,12.84,2.568,10.272
548,0,0,5.19041,26.0321,0,0,0,0.00000000,0.00000000,0,0,-255,0,-255,0,0,0,0,22.1,12.84,2.83764,10.0024
549,0,0,5.19769,25.1502,0,0,0,0.00000000,0.00000000,0,0,-255,0,-255,0,0,0,0,24.8,12.85,3.1868,9.6632
550,0,0,5.20334,24.4798,0,0,0,0.00000000,0.00000000,0,0,-255,0,-255,0,0,0,0,24.8,12.85,3.1868,9.6632
551,0,0,5.21146,23.5314,0,0,0,0.00000000,0.00000000,0,0,-255,0,-255,0,0,0,0,24.8,12.85,3.1868,9.6632
552,0,0,5.21677,22.9191,0,0,0,0.00000000,0.00000000,0,0,-255,0,-255,0,0,0,0,24.8,12.85,3.1868,9.6632
