secs,cad,hr,km,kph,nm,watts,alt,lon,lat,headwind,slope,temp,interval,lrbalance,lte,rte,lps,rps,smo2,thb,o2hb,hhb
0,1,0,0,10.2217,0,451,0,0.00000000,0.00000000,0,0,-255,0,-255,0,0,0,0,79.2,13.21,10.4623,2.74768
1,1,0,0.00331521,15.1188,0,507,0,0.00000000,0.00000000,0,0,-255,0,-255,0,0,0,0,79.2,13.21,10.4623,2.74768
2,71,0,0.00820903,19.1151,0,434,0,0.00000000,0.00000000,0,0,-255,0,-255,0,0,0,0,78.8,13.19,10.3937,2.79628
3,67,0,0.0139379,21.3565,0,324,0,0.00000000,0.00000000,0,0,-255,0,-255,0,0,0,0,77.6,13.17,10.2199,2.95008
4,74,0,0.0201906,22.8839,0,298,0,0.00000000,0.00000000,0,0,-255,0,-255,0,0,0,0,77.6,13.17,10.2199,2.95008
5,79,0,0.0268349,24.2068,0,304,0,0.00000000,0.00000000,0,0,-255,0,-255,0,0,0,0,74.6,13.14,9.80244,3.33756
6,81,0,0.0338439,25.3975,0,310,0,0.00000000,0.00000000,0,0,-255,0,-255,0,0,0,0,74.6,13.14,9.80244,3.33756
7,88,0,0.0411697,26.4527,0,305,0,0.00000000,0.00000000,0,0,-255,0,-255,0,0,0,0,69,13.1,9.039,4.061
8,96,0,0.0487528,27.3431,0,300,0,0.00000000,0.00000000,0,0,-255,0,-255,0,0,0,0,69,13.1,9.039,4.061
9,97,0,0.0565804,28.1198,0,299,0,0.00000000,0.00000000,0,0,-255,0,-255,0,0,0,0,62.2,13.07,8.12954,4.94046
10,94,0,0.0646172,28.791,0,298,0,0.00000000,0.00000000,0,0,-255,0,-255,0,0,0,0,62.2,13.07,8.12954,4.94046
11,93,0,0.0728357,29.4066,0,302,0,0.00000000,0.00000000,0,0,-255,0,-255,0,0,0,0,54.8,13.05,7.1514,5.8986
12,92,0,0.0795123,29.8525,0,300,0,0.00000000,0.00000000,0,0,-255,0,-255,0,0,0,0,54.8,13.05,7.1514,5.8986
13,93,0,0.0879817,30.3402,0,297,0,0.00000000,0.00000000,0,0,-255,0,-255,0,0,0,0,54.8,13.05,7.1514,5.8986
14,92,0,0.0966137,30.7788,0,300,0,0.00000000,0.00000000,0,0,-255,0,-255,0,0,0,0,46.4,13.03,6.04592,6.98408
15,91,0,0.10534,31.1715,0,299,0,0.00000000,0.00000000,0,0,-255,0,-255,0,0,0,0,38.8,13.02,5.05176,7.96824
16,92,0,0.114222,31.5094,0,297,0,0.00000000,0.00000000,0,0,-255,0,-255,0,0,0,0,38.8,13.02,5.05176,7.96824
17,91,0,0.123134,31.8297,0,303,0,0.00000000,0.00000000,0,0,-255,0,-255,0,0,0,0,33.5,13.02,4.3617,8.6583
18,92,0,0.132144,32.1047,0,295,0,0.00000000,0.00000000,0,0,-255,0,-255,0,0,0,0,33.5,13.02,4.3617,8.6583
19,92,0,0.141247,32.3367,0,302,0,0.00000000,0.00000000,0,0,-255,0,-255,0,0,0,0,29.4,13.02,3.82788,9.19212
20,90,0,0.150413,32.5652,0,300,0,0.00000000,0.00000000,0,0,-255,0,-255,0,0,0,0,29.4,13.02,3.82788,9.19212
21,92,0,0.159603,32.7494,0,299,0,0.00000000,0.00000000,0,0,-255,0,-255,0,0,0,0,25.4,13.03,3.30962,9.72038
22,91,0,0.168898,32.9301,0,301,0,0.00000000,0.00000000,0,0,-255,0,-255,0,0,0,0,25.4,13.03,3.30962,9.72038
23,92,0,0.178182,33.0799,0,298,0,0.00000000,0.00000000,0,0,-255,0,-255,0,0,0,0,25.4,13.03,3.30962,9.72038
24,92,0,0.18757,33.2133,0,299,0,0.00000000,0.00000000,0,0,-255,0,-255,0,0,0,0,23.2,13.04,3.02528,10.0147
25,90,0,0.195041,33.3176,0,302,0,0.00000000,0.00000000,0,0,-255,0,-255,0,0,0,0,23.2,13.04,3.02528,10.0147
26,91,0,0.204486,33.432,0,299,0,0.00000000,0.00000000,0,0,-255,0,-255,0,0,0,0,22,13.04,2.8688,10.1712
27,91,0,0.213918,33.5329,0,302,0,0.00000000,0.00000000,0,0,-255,0,-255,0,0,0,0,20.7,13.04,2.69928,10.3407
28,92,0,0.223385,33.6293,0,300,0,0.00000000,0.00000000,0,0,-255,0,-255,0,0,0,0,20.7,13.04,2.69928,10.3407
29,92,0,0.232899,33.7071,0,300,0,0.00000000,0.00000000,0,0,-255,0,-255,0,0,0,0,19.4,13.04,2.52976,10.5102
30,91,0,0.242401,33.7718,0,297,0,0.00000000,0.00000000,0,0,-255,0,-255,0,0,0,0,19.4,13.04,2.52976,10.5102
31,91,0,0.25193,33.8364,0,304,0,0.00000000,0.00000000,0,0,-255,0,-255,0,0,0,0,19,13.04,2.4776,10.5624
32,92,0,0.261496,33.9054,0,299,0,0.00000000,0.00000000,0,0,-255,0,-255,0,0,0,0,19,13.04,2.4776,10.5624
33,94,0,0.271078,33.9462,0,297,0,0.00000000,0.00000000,0,0,-255,0,-255,0,0,0,0,19,13.04,2.4776,10.5624
34,92,0,0.280641,33.9804,0,300,0,0.00000000,0.00000000,0,0,-255,0,-255,0,0,0,0,17.9,13.04,2.33416,10.7058
35,91,0,0.290264,34.0266,0,301,0,0.00000000,0.00000000,0,0,-255,0,-255,0,0,0,0,16.7,13.04,2.17768,10.8623
36,91,0,0.299833,34.0669,0,301,0,0.00000000,0.00000000,0,0,-255,0,-255,0,0,0,0,16.7,13.04,2.17768,10.8623
37,92,0,0.309466,34.0938,0,299,0,0.00000000,0.00000000,0,0,-255,0,-255,0,0,0,0,15.8,13.04,2.06032,10.9797
38,92,0,0.317168,34.1206,0,301,0,0.00000000,0.00000000,0,0,-255,0,-255,0,0,0,0,15.8,13.04,2.06032,10.9797
39,93,0,0.326779,34.1419,0,298,0,0.00000000,0.00000000,0,0,-255,0,-255,0,0,0,0,15.3,13.05,1.99665,11.0534
40,91,0,0.336441,34.1598,0,300,0,0.00000000,0.00000000,0,0,-255,0,-255,0,0,0,0,15.3,13.05,1.99665,11.0534
41,92,0,0.346052,34.1819,0,300,0,0.00000000,0.00000000,0,0,-255,0,-255,0,0,0,0,14.5,13.05,1.89225,11.1578
42,93,0,0.355708,34.2007,0,300,0,0.00000000,0.00000000,0,0,-255,0,-255,0,0,0,0,14.5,13.05,1.89225,11.1578
43,93,0,0.365366,34.2166,0,300,0,0.00000000,0.00000000,0,0,-255,0,-255,0,0,0,0,14.5,13.05,1.89225,11.1578
44,93,0,0.375004,34.2288,0,300,0,0.00000000,0.00000000,0,0,-255,0,-255,0,0,0,0,14.5,13.05,1.89225,11.1578
45,92,0,0.384671,34.2452,0,300,0,0.00000000,0.00000000,0,0,-255,0,-255,0,0,0,0,14.5,13.05,1.89225,11.1578
46,92,0,0.394338,34.257,0,300,0,0.00000000,0.00000000,0,0,-255,0,-255,0,0,0,0,14.4,13.05,1.8792,11.1708
47,94,0,0.403991,34.2671,0,299,0,0.00000000,0.00000000,0,0,-255,0,-255,0,0,0,0,14.4,13.05,1.8792,11.1708
48,95,0,0.413686,34.2766,0,301,0,0.00000000,0.00000000,0,0,-255,0,-255,0,0,0,0,14.4,13.05,1.8792,11.1708
49,96,0,0.423339,34.2954,0,300,0,0.00000000,0.00000000,0,0,-255,0,-255,0,0,0,0,14.1,13.05,1.84005,11.21
50,96,0,0.43302,34.2939,0,297,0,0.00000000,0.00000000,0,0,-255,0,-255,0,0,0,0,14.1,13.05,1.84005,11.21
51,96,0,0.440748,34.2881,0,297,0,0.00000000,0.00000000,0,0,-255,0,-255,0,0,0,0,14.1,13.05,1.84005,11.21
52,94,0,0.450431,34.2877,0,300,0,0.00000000,0.00000000,0,0,-255,0,-255,0,0,0,0,14,13.05,1.827,11.223
53,94,0,0.460098,34.2907,0,299,0,0.00000000,0.00000000,0,0,-255,0,-255,0,0,0,0,13.9,13.05,1.81395,11.2361
54,94,0,0.469786,34.2954,0,300,0,0.00000000,0.00000000,0,0,-255,0,-255,0,0,0,0,13.9,13.05,1.81395,11.2361
55,94,0,0.47947,34.2971,0,298,0,0.00000000,0.00000000,0,0,-255,0,-255,0,0,0,0,13.9,13.05,1.81395,11.2361
56,94,0,0.489116,34.2997,0,300,0,0.00000000,0.00000000,0,0,-255,0,-255,0,0,0,0,13.8,13.05,1.8009,11.2491
57,94,0,0.498802,34.3056,0,300,0,0.00000000,0.00000000,0,0,-255,0,-255,0,0,0,0,13.8,13.05,1.8009,11.2491
58,94,0,0.508489,34.3094,0,299,0,0.00000000,0.00000000,0,0,-255,0,-255,0,0,0,0,13.9,13.05,1.81395,11.2361
59,93,0,0.518164,34.3119,0,300,0,0.00000000,0.00000000,0,0,-255,0,-255,0,0,0,0,14.3,13.05,1.86615,11.1838
60,92,0,0.527847,34.3137,0,300,0,0.00000000,0.00000000,0,0,-255,0,-255,0,0,0,0,14.3,13.05,1.86615,11.1838
61,93,0,0.537515,34.3121,0,299,0,0.00000000,0.00000000,0,0,-255,0,-255,0,0,0,0,14.5,13.05,1.89225,11.1578
62,92,0,0.547202,34.3102,0,297,0,0.00000000,0.00000000,0,0,-255,0,-255,0,0,0,0,14.5,13.05,1.89225,11.1578
63,90,0,0.556911,34.298,0,296,0,0.00000000,0.00000000,0,0,-255,0,-255,0,0,0,0,14.5,13.05,1.89225,11.1578
64,90,0,0.564635,34.2952,0,299,0,0.00000000,0.00000000,0,0,-255,0,-255,0,0,0,0,14.6,13.05,1.9053,11.1447
65,86,0,0.574291,34.2979,0,301,0,0.00000000,0.00000000,0,0,-255,0,-255,0,0,0,0,14.6,13.06,1.90676,11.1532
66,86,0,0.583995,34.3109,0,302,0,0.00000000,0.00000000,0,0,-255,0,-255,0,0,0,0,14.6,13.06,1.90676,11.1532
67,90,0,0.593663,34.3209,0,300,0,0.00000000,0.00000000,0,0,-255,0,-255,0,0,0,0,14.3,13.06,1.86758,11.1924
68,90,0,0.603329,34.3244,0,300,0,0.00000000,0.00000000,0,0,-255,0,-255,0,0,0,0,14.3,13.06,1.86758,11.1924
69,90,0,0.613027,34.3272,0,301,0,0.00000000,0.00000000,0,0,-255,0,-255,0,0,0,0,14.3,13.06,1.86758,11.1924
70,90,0,0.622706,34.3346,0,301,0,0.00000000,0.00000000,0,0,-255,0,-255,0,0,0,0,14.1,13.06,1.84146,11.2185
71,91,0,0.632421,34.3402,0,299,0,0.00000000,0.00000000,0,0,-255,0,-255,0,0,0,0,14.1,13.06,1.84146,11.2185
72,91,0,0.642092,34.3371,0,299,0,0.00000000,0.00000000,0,0,-255,0,-255,0,0,0,0,13.8,13.06,1.80228,11.2577
73,91,0,0.651787,34.3329,0,298,0,0.00000000,0.00000000,0,0,-255,0,-255,0,0,0,0,13.8,13.06,1.80228,11.2577
74,91,0,0.661463,34.3339,0,301,0,0.00000000,0.00000000,0,0,-255,0,-255,0,0,0,0,13.8,13.06,1.80228,11.2577
75,91,0,0.671147,34.3349,0,297,0,0.00000000,0.00000000,0,0,-255,0,-255,0,0,0,0,13.8,13.06,1.80228,11.2577
76,91,0,0.680819,34.3284,0,300,0,0.00000000,0.00000000,0,0,-255,0,-255,0,0,0,0,13.6,13.07,1.77752,11.2925
77,91,0,0.688582,34.3325,0,300,0,0.00000000,0.00000000,0,0,-255,0,-255,0,0,0,0,13.6,13.07,1.77752,11.2925
78,91,0,0.698278,34.3333,0,299,0,0.00000000,0.00000000,0,0,-255,0,-255,0,0,0,0,13.8,13.07,1.80366,11.2663
79,91,0,0.707944,34.3319,0,299,0,0.00000000,0.00000000,0,0,-255,0,-255,0,0,0,0,13.7,13.06,1.78922,11.2708
80,90,0,0.717638,34.3306,0,299,0,0.00000000,0.00000000,0,0,-255,0,-255,0,0,0,0,13.7,13.06,1.78922,11.2708
81,90,0,0.727321,34.3244,0,298,0,0.00000000,0.00000000,0,0,-255,0,-255,0,0,0,0,13.7,13.06,1.78922,11.2708
82,90,0,0.736994,34.3218,0,301,0,0.00000000,0.00000000,0,0,-255,0,-255,0,0,0,0,14.1,13.07,1.84287,11.2271
83,92,0,0.746676,34.3242,0,299,0,0.00000000,0.00000000,0,0,-255,0,-255,0,0,0,0,14.1,13.07,1.84287,11.2271
84,92,0,0.756362,34.3239,0,299,0,0.00000000,0.00000000,0,0,-255,0,-255,0,0,0,0,14.2,13.06,1.85452,11.2055
85,92,0,0.766046,34.3225,0,299,0,0.00000000,0.00000000,0,0,-255,0,-255,0,0,0,0,14.4,13.06,1.88064,11.1794
86,91,0,0.775751,34.3296,0,301,0,0.00000000,0.00000000,0,0,-255,0,-255,0,0,0,0,14.4,13.06,1.88064,11.1794
87,92,0,0.785444,34.3385,0,301,0,0.00000000,0.00000000,0,0,-255,0,-255,0,0,0,0,14.4,13.06,1.88064,11.1794
88,93,0,0.795134,34.3405,0,298,0,0.00000000,0.00000000,0,0,-255,0,-255,0,0,0,0,14.7,13.07,1.92129,11.1487
89,93,0,0.804797,34.3387,0,299,0,0.00000000,0.00000000,0,0,-255,0,-255,0,0,0,0,14.8,13.07,1.93436,11.1356
90,93,0,0.812551,34.3339,0,298,0,0.00000000,0.00000000,0,0,-255,0,-255,0,0,0,0,14.8,13.07,1.93436,11.1356
91,91,0,0.822248,34.3358,0,301,0,0.00000000,0.00000000,0,0,-255,0,-255,0,0,0,0,14.8,13.07,1.93436,11.1356
92,93,0,0.831944,34.3558,0,308,0,0.00000000,0.00000000,0,0,-255,0,-255,0,0,0,0,14.6,13.06,1.90676,11.1532
93,93,0,0.841624,34.3951,0,311,0,0.00000000,0.00000000,0,0,-255,0,-255,0,0,0,0,14.6,13.06,1.90676,11.1532
94,93,0,0.851334,34.4379,0,308,0,0.00000000,0.00000000,0,0,-255,0,-255,0,0,0,0,15,13.06,1.959,11.101
95,93,0,0.861064,34.4709,0,309,0,0.00000000,0.00000000,0,0,-255,0,-255,0,0,0,0,15.1,13.06,1.97206,11.0879
96,92,0,0.870808,34.4983,0,308,0,0.00000000,0.00000000,0,0,-255,0,-255,0,0,0,0,15.1,13.06,1.97206,11.0879
97,92,0,0.880505,34.5209,0,311,0,0.00000000,0.00000000,0,0,-255,0,-255,0,0,0,0,15.1,13.06,1.97206,11.0879
98,92,0,0.890261,34.55,0,310,0,0.00000000,0.00000000,0,0,-255,0,-255,0,0,0,0,15.4,13.06,2.01124,11.0488
99,92,0,0.900018,34.5713,0,309,0,0.00000000,0.00000000,0,0,-255,0,-255,0,0,0,0,16,13.06,2.0896,10.9704
100,93,0,0.909754,34.587,0,309,0,0.00000000,0.00000000,0,0,-255,0,-255,0,0,0,0,16,13.06,2.0896,10.9704
101,92,0,0.919529,34.6075,0,311,0,0.00000000,0.00000000,0,0,-255,0,-255,0,0,0,0,16,13.06,2.0896,10.9704
102,92,0,0.929302,34.6251,0,310,0,0.00000000,0.00000000,0,0,-255,0,-255,0,0,0,0,16.1,13.06,2.10266,10.9573
103,92,0,0.937098,34.6346,0,308,0,0.00000000,0.00000000,0,0,-255,0,-255,0,0,0,0,16.1,13.06,2.10266,10.9573
104,92,0,0.946887,34.6485,0,309,0,0.00000000,0.00000000,0,0,-255,0,-255,0,0,0,0,15.9,13.06,2.07654,10.9835
105,92,0,0.956655,34.6593,0,309,0,0.00000000,0.00000000,0,0,-255,0,-255,0,0,0,0,16,13.06,2.0896,10.9704
106,91,0,0.966432,34.6663,0,309,0,0.00000000,0.00000000,0,0,-255,0,-255,0,0,0,0,16,13.06,2.0896,10.9704
107,91,0,0.976241,34.6684,0,308,0,0.00000000,0.00000000,0,0,-255,0,-255,0,0,0,0,15.7,13.06,2.05042,11.0096
108,91,0,0.986019,34.6767,0,311,0,0.00000000,0.00000000,0,0,-255,0,-255,0,0,0,0,15.7,13.06,2.05042,11.0096
109,91,0,0.995774,34.6884,0,310,0,0.00000000,0.00000000,0,0,-255,0,-255,0,0,0,0,15.9,13.07,2.07813,10.9919
110,91,0,1.00557,34.6926,0,309,0,0.00000000,0.00000000,0,0,-255,0,-255,0,0,0,0,15.9,13.07,2.07813,10.9919
111,90,0,1.01535,34.6981,0,310,0,0.00000000,0.00000000,0,0,-255,0,-255,0,0,0,0,16.2,13.07,2.11734,10.9527
112,91,0,1.02515,34.7034,0,310,0,0.00000000,0.00000000,0,0,-255,0,-255,0,0,0,0,16.2,13.07,2.11734,10.9527
113,91,0,1.03495,34.7086,0,309,0,0.00000000,0.00000000,0,0,-255,0,-255,0,0,0,0,16.5,13.07,2.15655,10.9135
114,91,0,1.04472,34.7133,0,310,0,0.00000000,0.00000000,0,0,-255,0,-255,0,0,0,0,16.5,13.07,2.15655,10.9135
115,91,0,1.05451,34.7178,0,310,0,0.00000000,0.00000000,0,0,-255,0,-255,0,0,0,0,16.5,13.07,2.15655,10.9135
116,91,0,1.06236,34.7205,0,309,0,0.00000000,0.00000000,0,0,-255,0,-255,0,0,0,0,16.7,13.07,2.18269,10.8873
117,91,0,1.07215,34.7225,0,309,0,0.00000000,0.00000000,0,0,-255,0,-255,0,0,0,0,16.7,13.07,2.18269,10.8873
118,91,0,1.08196,34.7247,0,310,0,0.00000000,0.00000000,0,0,-255,0,-255,0,0,0,0,17.1,13.08,2.23668,10.8433
119,91,0,1.09174,34.7272,0,310,0,0.00000000,0.00000000,0,0,-255,0,-255,0,0,0,0,17,13.07,2.2219,10.8481
120,91,0,1.10155,34.7365,0,310,0,0.00000000,0.00000000,0,0,-255,0,-255,0,0,0,0,17,13.07,2.2219,10.8481
121,91,0,1.11135,34.7426,0,311,0,0.00000000,0.00000000,0,0,-255,0,-255,0,0,0,0,17,13.07,2.2219,10.8481
122,93,0,1.12116,34.7453,0,310,0,0.00000000,0.00000000,0,0,-255,0,-255,0,0,0,0,17,13.07,2.2219,10.8481
123,92,0,1.13096,34.7395,0,309,0,0.00000000,0.00000000,0,0,-255,0,-255,0,0,0,0,17,13.07,2.2219,10.8481
124,92,0,1.14074,34.7339,0,309,0,0.00000000,0.00000000,0,0,-255,0,-255,0,0,0,0,17,13.07,2.2219,10.8481
125,90,0,1.15055,34.7381,0,311,0,0.00000000,0.00000000,0,0,-255,0,-255,0,0,0,0,17.3,13.08,2.26284,10.8172
126,90,0,1.16036,34.7393,0,308,0,0.00000000,0.00000000,0,0,-255,0,-255,0,0,0,0,17.3,13.08,2.26284,10.8172
127,90,0,1.17014,34.7328,0,308,0,0.00000000,0.00000000,0,0,-255,0,-255,0,0,0,0,17.3,13.08,2.26284,10.8172
128,90,0,1.17996,34.7225,0,306,0,0.00000000,0.00000000,0,0,-255,0,-255,0,0,0,0,17.3,13.08,2.26284,10.8172
129,88,0,1.18777,34.7134,0,306,0,0.00000000,0.00000000,0,0,-255,0,-255,0,0,0,0,17.3,13.08,2.26284,10.8172
130,86,0,1.19756,34.7059,0,309,0,0.00000000,0.00000000,0,0,-255,0,-255,0,0,0,0,17.2,13.08,2.24976,10.8302
131,84,0,1.20737,34.7219,0,316,0,0.00000000,0.00000000,0,0,-255,0,-255,0,0,0,0,17.3,13.08,2.26284,10.8172
132,84,0,1.21716,34.7473,0,309,0,0.00000000,0.00000000,0,0,-255,0,-255,0,0,0,0,17.3,13.08,2.26284,10.8172
133,88,0,1.227,34.7386,0,308,0,0.00000000,0.00000000,0,0,-255,0,-255,0,0,0,0,17.5,13.09,2.29075,10.7993
134,89,0,1.23677,34.7382,0,311,0,0.00000000,0.00000000,0,0,-255,0,-255,0,0,0,0,17.5,13.09,2.29075,10.7993
135,88,0,1.24658,34.7445,0,311,0,0.00000000,0.00000000,0,0,-255,0,-255,0,0,0,0,17.1,13.09,2.23839,10.8516
136,89,0,1.25637,34.7501,0,311,0,0.00000000,0.00000000,0,0,-255,0,-255,0,0,0,0,17.1,13.09,2.23839,10.8516
137,88,0,1.26617,34.7509,0,308,0,0.00000000,0.00000000,0,0,-255,0,-255,0,0,0,0,17.1,13.09,2.23839,10.8516
138,90,0,1.27598,34.7496,0,310,0,0.00000000,0.00000000,0,0,-255,0,-255,0,0,0,0,17.1,13.09,2.23839,10.8516
139,90,0,1.28579,34.7478,0,309,0,0.00000000,0.00000000,0,0,-255,0,-255,0,0,0,0,17,13.09,2.2253,10.8647
140,89,0,1.2956,34.7481,0,310,0,0.00000000,0.00000000,0,0,-255,0,-255,0,0,0,0,17,13.09,2.2253,10.8647
141,89,0,1.30541,34.7516,0,312,0,0.00000000,0.00000000,0,0,-255,0,-255,0,0,0,0,17,13.09,2.2253,10.8647
142,89,0,1.31322,34.7589,0,310,0,0.00000000,0.00000000,0,0,-255,0,-255,0,0,0,0,17.2,13.09,2.25148,10.8385
143,91,0,1.32303,34.756,0,309,0,0.00000000,0.00000000,0,0,-255,0,-255,0,0,0,0,17,13.08,2.2236,10.8564
144,90,0,1.33285,34.755,0,309,0,0.00000000,0.00000000,0,0,-255,0,-255,0,0,0,0,17,13.08,2.2236,10.8564
145,90,0,1.34265,34.7473,0,308,0,0.00000000,0.00000000,0,0,-255,0,-255,0,0,0,0,17.2,13.08,2.24976,10.8302
146,88,0,1.35245,34.7439,0,307,0,0.00000000,0.00000000,0,0,-255,0,-255,0,0,0,0,17.2,13.08,2.24976,10.8302
147,88,0,1.36228,34.7343,0,309,0,0.00000000,0.00000000,0,0,-255,0,-255,0,0,0,0,17.1,13.08,2.23668,10.8433
148,88,0,1.37206,34.7366,0,309,0,0.00000000,0.00000000,0,0,-255,0,-255,0,0,0,0,17.1,13.08,2.23668,10.8433
149,87,0,1.38185,34.7322,0,309,0,0.00000000,0.00000000,0,0,-255,0,-255,0,0,0,0,17.1,13.08,2.23668,10.8433
150,86,0,1.39164,34.7415,0,312,0,0.00000000,0.00000000,0,0,-255,0,-255,0,0,0,0,17.3,13.08,2.26284,10.8172
151,87,0,1.40145,34.7438,0,310,0,0.00000000,0.00000000,0,0,-255,0,-255,0,0,0,0,17,13.08,2.2236,10.8564
152,87,0,1.41125,34.7459,0,310,0,0.00000000,0.00000000,0,0,-255,0,-255,0,0,0,0,17,13.08,2.2236,10.8564
153,88,0,1.42105,34.7445,0,309,0,0.00000000,0.00000000,0,0,-255,0,-255,0,0,0,0,17,13.08,2.2236,10.8564
154,88,0,1.43086,34.7452,0,310,0,0.00000000,0.00000000,0,0,-255,0,-255,0,0,0,0,17,13.08,2.2236,10.8564
155,88,0,1.43868,34.7426,0,309,0,0.00000000,0.00000000,0,0,-255,0,-255,0,0,0,0,17,13.08,2.2236,10.8564
156,88,0,1.4485,34.7444,0,310,0,0.00000000,0.00000000,0,0,-255,0,-255,0,0,0,0,16.7,13.08,2.18436,10.8956
157,88,0,1.4583,34.7455,0,310,0,0.00000000,0.00000000,0,0,-255,0,-255,0,0,0,0,16.7,13.07,2.18269,10.8873
158,88,0,1.46812,34.7483,0,310,0,0.00000000,0.00000000,0,0,-255,0,-255,0,0,0,0,16.7,13.07,2.18269,10.8873
159,88,0,1.47791,34.7503,0,311,0,0.00000000,0.00000000,0,0,-255,0,-255,0,0,0,0,16.6,13.07,2.16962,10.9004
160,89,0,1.48771,34.7498,0,309,0,0.00000000,0.00000000,0,0,-255,0,-255,0,0,0,0,16.6,13.07,2.16962,10.9004
161,89,0,1.49753,34.7499,0,310,0,0.00000000,0.00000000,0,0,-255,0,-255,0,0,0,0,16.6,13.07,2.16962,10.9004
162,89,0,1.5073,34.7513,0,310,0,0.00000000,0.00000000,0,0,-255,0,-255,0,0,0,0,16.6,13.07,2.16962,10.9004
163,89,0,1.51712,34.7525,0,310,0,0.00000000,0.00000000,0,0,-255,0,-255,0,0,0,0,17.1,13.06,2.23326,10.8267
164,88,0,1.52692,34.7536,0,310,0,0.00000000,0.00000000,0,0,-255,0,-255,0,0,0,0,17.1,13.06,2.23326,10.8267
165,89,0,1.53674,34.7546,0,310,0,0.00000000,0.00000000,0,0,-255,0,-255,0,0,0,0,17.5,13.07,2.28725,10.7828
166,89,0,1.54655,34.7536,0,308,0,0.00000000,0.00000000,0,0,-255,0,-255,0,0,0,0,17.5,13.07,2.28725,10.7828
167,88,0,1.55634,34.7489,0,311,0,0.00000000,0.00000000,0,0,-255,0,-255,0,0,0,0,17.5,13.07,2.28725,10.7828
168,88,0,1.56419,34.7505,0,310,0,0.00000000,0.00000000,0,0,-255,0,-255,0,0,0,0,17.8,13.07,2.32646,10.7435
169,88,0,1.57398,34.7473,0,308,0,0.00000000,0.00000000,0,0,-255,0,-255,0,0,0,0,18.1,13.07,2.36567,10.7043
170,88,0,1.58379,34.7459,0,311,0,0.00000000,0.00000000,0,0,-255,0,-255,0,0,0,0,18.1,13.07,2.36567,10.7043
171,88,0,1.5936,34.7522,0,311,0,0.00000000,0.00000000,0,0,-255,0,-255,0,0,0,0,19,13.08,2.4852,10.5948
172,88,0,1.60342,34.7538,0,310,0,0.00000000,0.00000000,0,0,-255,0,-255,0,0,0,0,19,13.08,2.4852,10.5948
173,88,0,1.61321,34.753,0,310,0,0.00000000,0.00000000,0,0,-255,0,-255,0,0,0,0,19.4,13.08,2.53752,10.5425
174,88,0,1.62301,34.7567,0,310,0,0.00000000,0.00000000,0,0,-255,0,-255,0,0,0,0,19.4,13.08,2.53752,10.5425
175,88,0,1.63282,34.7573,0,310,0,0.00000000,0.00000000,0,0,-255,0,-255,0,0,0,0,19.9,13.09,2.60491,10.4851
176,88,0,1.64262,34.7579,0,310,0,0.00000000,0.00000000,0,0,-255,0,-255,0,0,0,0,19.9,13.09,2.60491,10.4851
177,88,0,1.65244,34.7557,0,310,0,0.00000000,0.00000000,0,0,-255,0,-255,0,0,0,0,20.1,13.09,2.63109,10.4589
178,88,0,1.66223,34.7578,0,311,0,0.00000000,0.00000000,0,0,-255,0,-255,0,0,0,0,20.1,13.09,2.63109,10.4589
179,89,0,1.67205,34.761,0,311,0,0.00000000,0.00000000,0,0,-255,0,-255,0,0,0,0,19.9,13.09,2.60491,10.4851
180,89,0,1.68184,34.7607,0,310,0,0.00000000,0.00000000,0,0,-255,0,-255,0,0,0,0,19.9,13.09,2.60491,10.4851
181,89,0,1.68971,34.7594,0,309,0,0.00000000,0.00000000,0,0,-255,0,-255,0,0,0,0,19.9,13.09,2.60491,10.4851
182,87,0,1.69948,34.7689,0,317,0,0.00000000,0.00000000,0,0,-255,0,-255,0,0,0,0,19.2,13.09,2.51328,10.5767
183,88,0,1.70931,34.8118,0,320,0,0.00000000,0.00000000,0,0,-255,0,-255,0,0,0,0,18.8,13.09,2.46092,10.6291
184,88,0,1.71914,34.8512,0,320,0,0.00000000,0.00000000,0,0,-255,0,-255,0,0,0,0,18.8,13.09,2.46092,10.6291
185,88,0,1.72898,34.8902,0,321,0,0.00000000,0.00000000,0,0,-255,0,-255,0,0,0,0,18.8,13.09,2.46092,10.6291
186,88,0,1.73881,34.9192,0,318,0,0.00000000,0.00000000,0,0,-255,0,-255,0,0,0,0,18.8,13.08,2.45904,10.621
187,86,0,1.74868,34.9408,0,319,0,0.00000000,0.00000000,0,0,-255,0,-255,0,0,0,0,18.8,13.09,2.46092,10.6291
188,87,0,1.75854,34.9617,0,320,0,0.00000000,0.00000000,0,0,-255,0,-255,0,0,0,0,18.8,13.09,2.46092,10.6291
189,87,0,1.7684,34.9865,0,321,0,0.00000000,0.00000000,0,0,-255,0,-255,0,0,0,0,18.8,13.09,2.46092,10.6291
190,88,0,1.77827,35.0076,0,320,0,0.00000000,0.00000000,0,0,-255,0,-255,0,0,0,0,18.8,13.09,2.46092,10.6291
191,89,0,1.78816,35.0282,0,321,0,0.00000000,0.00000000,0,0,-255,0,-255,0,0,0,0,18.3,13.08,2.39364,10.6864
192,88,0,1.79805,35.0432,0,319,0,0.00000000,0.00000000,0,0,-255,0,-255,0,0,0,0,18.3,13.08,2.39364,10.6864
193,89,0,1.80794,35.0553,0,320,0,0.00000000,0.00000000,0,0,-255,0,-255,0,0,0,0,17.9,13.08,2.34132,10.7387
194,89,0,1.81584,35.0646,0,319,0,0.00000000,0.00000000,0,0,-255,0,-255,0,0,0,0,17.9,13.08,2.34132,10.7387
195,89,0,1.82576,35.0712,0,319,0,0.00000000,0.00000000,0,0,-255,0,-255,0,0,0,0,17,13.07,2.2219,10.8481
196,88,0,1.83563,35.081,0,320,0,0.00000000,0.00000000,0,0,-255,0,-255,0,0,0,0,17,13.07,2.2219,10.8481
197,88,0,1.84553,35.0866,0,320,0,0.00000000,0.00000000,0,0,-255,0,-255,0,0,0,0,16.3,13.07,2.13041,10.9396
198,88,0,1.85544,35.0903,0,319,0,0.00000000,0.00000000,0,0,-255,0,-255,0,0,0,0,16.3,13.07,2.13041,10.9396
199,88,0,1.86533,35.0966,0,319,0,0.00000000,0.00000000,0,0,-255,0,-255,0,0,0,0,15.7,13.07,2.05199,11.018
200,89,0,1.87523,35.0937,0,318,0,0.00000000,0.00000000,0,0,-255,0,-255,0,0,0,0,15.7,13.07,2.05199,11.018
201,88,0,1.88513,35.0971,0,322,0,0.00000000,0.00000000,0,0,-255,0,-255,0,0,0,0,15.7,13.07,2.05199,11.018
202,89,0,1.89503,35.1256,0,325,0,0.00000000,0.00000000,0,0,-255,0,-255,0,0,0,0,15.8,13.07,2.06506,11.0049
203,94,0,1.90493,35.1442,0,320,0,0.00000000,0.00000000,0,0,-255,0,-255,0,0,0,0,16.1,13.08,2.10588,10.9741
204,94,0,1.91486,35.1382,0,318,0,0.00000000,0.00000000,0,0,-255,0,-255,0,0,0,0,16.1,13.08,2.10588,10.9741
205,95,0,1.92477,35.1326,0,319,0,0.00000000,0.00000000,0,0,-255,0,-255,0,0,0,0,16.1,13.08,2.10588,10.9741
206,94,0,1.93469,35.1298,0,319,0,0.00000000,0.00000000,0,0,-255,0,-255,0,0,0,0,16.3,13.08,2.13204,10.948
207,93,0,1.94264,35.1264,0,317,0,0.00000000,0.00000000,0,0,-255,0,-255,0,0,0,0,16.8,13.08,2.19744,10.8826
208,90,0,1.95255,35.1267,0,322,0,0.00000000,0.00000000,0,0,-255,0,-255,0,0,0,0,16.8,13.08,2.19744,10.8826
209,90,0,1.96243,35.1356,0,321,0,0.00000000,0.00000000,0,0,-255,0,-255,0,0,0,0,17.8,13.08,2.32824,10.7518
210,91,0,1.97235,35.144,0,321,0,0.00000000,0.00000000,0,0,-255,0,-255,0,0,0,0,17.8,13.08,2.32824,10.7518
211,93,0,1.98227,35.1429,0,320,0,0.00000000,0.00000000,0,0,-255,0,-255,0,0,0,0,18.3,13.08,2.39364,10.6864
212,90,0,1.99217,35.1447,0,319,0,0.00000000,0.00000000,0,0,-255,0,-255,0,0,0,0,18.3,13.08,2.39364,10.6864
213,91,0,2.00211,35.1432,0,319,0,0.00000000,0.00000000,0,0,-255,0,-255,0,0,0,0,18.1,13.08,2.36748,10.7125
214,91,0,2.01203,35.14,0,319,0,0.00000000,0.00000000,0,0,-255,0,-255,0,0,0,0,18.1,13.08,2.36748,10.7125
215,91,0,2.02192,35.1413,0,320,0,0.00000000,0.00000000,0,0,-255,0,-255,0,0,0,0,18.2,13.08,2.38056,10.6994
216,91,0,2.03184,35.1406,0,319,0,0.00000000,0.00000000,0,0,-255,0,-255,0,0,0,0,18.2,13.08,2.38056,10.6994
217,89,0,2.04174,35.135,0,317,0,0.00000000,0.00000000,0,0,-255,0,-255,0,0,0,0,18.2,13.08,2.38056,10.6994
218,89,0,2.05166,35.1409,0,321,0,0.00000000,0.00000000,0,0,-255,0,-255,0,0,0,0,18.2,13.08,2.38056,10.6994
219,89,0,2.06159,35.1446,0,318,0,0.00000000,0.00000000,0,0,-255,0,-255,0,0,0,0,17.9,13.09,2.34311,10.7469
220,89,0,2.06952,35.1445,0,320,0,0.00000000,0.00000000,0,0,-255,0,-255,0,0,0,0,17.9,13.09,2.34311,10.7469
221,89,0,2.07942,35.1487,0,319,0,0.00000000,0.00000000,0,0,-255,0,-255,0,0,0,0,17.8,13.09,2.33002,10.76
222,88,0,2.08933,35.149,0,320,0,0.00000000,0.00000000,0,0,-255,0,-255,0,0,0,0,17.8,13.09,2.33002,10.76
223,88,0,2.09925,35.1483,0,319,0,0.00000000,0.00000000,0,0,-255,0,-255,0,0,0,0,17.8,13.09,2.33002,10.76
224,89,0,2.10918,35.1478,0,320,0,0.00000000,0.00000000,0,0,-255,0,-255,0,0,0,0,17.3,13.08,2.26284,10.8172
225,89,0,2.1191,35.149,0,321,0,0.00000000,0.00000000,0,0,-255,0,-255,0,0,0,0,16.6,13.08,2.17128,10.9087
226,89,0,2.12899,35.1509,0,318,0,0.00000000,0.00000000,0,0,-255,0,-255,0,0,0,0,16.6,13.08,2.17128,10.9087
227,89,0,2.13891,35.1425,0,318,0,0.00000000,0.00000000,0,0,-255,0,-255,0,0,0,0,16.2,13.08,2.11896,10.961
228,89,0,2.14883,35.1386,0,320,0,0.00000000,0.00000000,0,0,-255,0,-255,0,0,0,0,16.2,13.08,2.11896,10.961
229,88,0,2.15873,35.1459,0,322,0,0.00000000,0.00000000,0,0,-255,0,-255,0,0,0,0,16.2,13.08,2.11896,10.961
230,89,0,2.16868,35.1459,0,318,0,0.00000000,0.00000000,0,0,-255,0,-255,0,0,0,0,15.7,13.08,2.05356,11.0264
231,90,0,2.17857,35.1447,0,321,0,0.00000000,0.00000000,0,0,-255,0,-255,0,0,0,0,15.2,13.08,1.98816,11.0918
232,90,0,2.1885,35.1444,0,318,0,0.00000000,0.00000000,0,0,-255,0,-255,0,0,0,0,15.2,13.08,1.98816,11.0918
233,89,0,2.19642,35.1367,0,319,0,0.00000000,0.00000000,0,0,-255,0,-255,0,0,0,0,15.2,13.08,1.98816,11.0918
234,89,0,2.20634,35.1392,0,320,0,0.00000000,0.00000000,0,0,-255,0,-255,0,0,0,0,15.5,13.08,2.0274,11.0526
235,89,0,2.21628,35.1395,0,319,0,0.00000000,0.00000000,0,0,-255,0,-255,0,0,0,0,15.7,13.08,2.05356,11.0264
236,90,0,2.22615,35.1368,0,319,0,0.00000000,0.00000000,0,0,-255,0,-255,0,0,0,0,15.7,13.08,2.05356,11.0264
237,89,0,2.23606,35.1348,0,318,0,0.00000000,0.00000000,0,0,-255,0,-255,0,0,0,0,15.9,13.08,2.07972,11.0003
238,88,0,2.246,35.1372,0,320,0,0.00000000,0.00000000,0,0,-255,0,-255,0,0,0,0,15.9,13.08,2.07972,11.0003
239,89,0,2.25592,35.1432,0,321,0,0.00000000,0.00000000,0,0,-255,0,-255,0,0,0,0,17,13.09,2.2253,10.8647
240,89,0,2.26582,35.1462,0,319,0,0.00000000,0.00000000,0,0,-255,0,-255,0,0,0,0,17,13.09,2.2253,10.8647
241,90,0,2.27575,35.1462,0,319,0,0.00000000,0.00000000,0,0,-255,0,-255,0,0,0,0,17.1,13.09,2.23839,10.8516
242,89,0,2.28564,35.1356,0,317,0,0.00000000,0.00000000,0,0,-255,0,-255,0,0,0,0,17.1,13.09,2.23839,10.8516
243,87,0,2.29556,35.1343,0,319,0,0.00000000,0.00000000,0,0,-255,0,-255,0,0,0,0,17.4,13.09,2.27766,10.8123
244,87,0,2.30546,35.1311,0,317,0,0.00000000,0.00000000,0,0,-255,0,-255,0,0,0,0,17.4,13.09,2.27766,10.8123
245,86,0,2.31537,35.1218,0,318,0,0.00000000,0.00000000,0,0,-255,0,-255,0,0,0,0,17.6,13.09,2.30384,10.7862
246,85,0,2.32332,35.126,0,321,0,0.00000000,0.00000000,0,0,-255,0,-255,0,0,0,0,17.6,13.09,2.30384,10.7862
247,85,0,2.33324,35.1369,0,322,0,0.00000000,0.00000000,0,0,-255,0,-255,0,0,0,0,17.5,13.09,2.29075,10.7993
248,86,0,2.34312,35.1432,0,320,0,0.00000000,0.00000000,0,0,-255,0,-255,0,0,0,0,17.5,13.09,2.29075,10.7993
249,88,0,2.35305,35.1445,0,320,0,0.00000000,0.00000000,0,0,-255,0,-255,0,0,0,0,16.6,13.09,2.17294,10.9171
250,88,0,2.36295,35.1447,0,318,0,0.00000000,0.00000000,0,0,-255,0,-255,0,0,0,0,16.6,13.09,2.17294,10.9171
251,88,0,2.37289,35.136,0,318,0,0.00000000,0.00000000,0,0,-255,0,-255,0,0,0,0,16.6,13.09,2.17294,10.9171
252,88,0,2.3828,35.1351,0,319,0,0.00000000,0.00000000,0,0,-255,0,-255,0,0,0,0,16.7,13.1,2.1877,10.9123
253,86,0,2.3927,35.1405,0,322,0,0.00000000,0.00000000,0,0,-255,0,-255,0,0,0,0,16.7,13.1,2.1877,10.9123
254,87,0,2.40264,35.1433,0,319,0,0.00000000,0.00000000,0,0,-255,0,-255,0,0,0,0,16.6,13.1,2.1746,10.9254
255,87,0,2.41255,35.1411,0,319,0,0.00000000,0.00000000,0,0,-255,0,-255,0,0,0,0,16.3,13.09,2.13367,10.9563
256,87,0,2.42247,35.1423,0,320,0,0.00000000,0.00000000,0,0,-255,0,-255,0,0,0,0,16.3,13.09,2.13367,10.9563
257,87,0,2.43235,35.1446,0,320,0,0.00000000,0.00000000,0,0,-255,0,-255,0,0,0,0,15.8,13.09,2.06822,11.0218
258,86,0,2.44227,35.1449,0,320,0,0.00000000,0.00000000,0,0,-255,0,-255,0,0,0,0,15.8,13.09,2.06822,11.0218
259,88,0,2.4502,35.1492,0,320,0,0.00000000,0.00000000,0,0,-255,0,-255,0,0,0,0,15.5,13.09,2.02895,11.061
260,88,0,2.46014,35.1371,0,316,0,0.00000000,0.00000000,0,0,-255,0,-255,0,0,0,0,15.5,13.09,2.02895,11.061
261,87,0,2.47002,35.1345,0,321,0,0.00000000,0.00000000,0,0,-255,0,-255,0,0,0,0,15.2,13.08,1.98816,11.0918
262,87,0,2.47993,35.1435,0,322,0,0.00000000,0.00000000,0,0,-255,0,-255,0,0,0,0,15.2,13.08,1.98816,11.0918
263,88,0,2.48985,35.1509,0,320,0,0.00000000,0.00000000,0,0,-255,0,-255,0,0,0,0,15.2,13.08,1.98816,11.0918
264,89,0,2.49978,35.1439,0,319,0,0.00000000,0.00000000,0,0,-255,0,-255,0,0,0,0,14.9,13.08,1.94892,11.1311
265,88,0,2.50968,35.1444,0,321,0,0.00000000,0.00000000,0,0,-255,0,-255,0,0,0,0,14.9,13.08,1.94892,11.1311
266,89,0,2.5196,35.1518,0,321,0,0.00000000,0.00000000,0,0,-255,0,-255,0,0,0,0,14.6,13.08,1.90968,11.1703
267,89,0,2.52954,35.1466,0,317,0,0.00000000,0.00000000,0,0,-255,0,-255,0,0,0,0,14.7,13.08,1.92276,11.1572
268,88,0,2.53944,35.1459,0,321,0,0.00000000,0.00000000,0,0,-255,0,-255,0,0,0,0,14.7,13.08,1.92276,11.1572
269,89,0,2.54935,35.1491,0,320,0,0.00000000,0.00000000,0,0,-255,0,-255,0,0,0,0,14.5,13.09,1.89805,11.192
270,89,0,2.55927,35.153,0,323,0,0.00000000,0.00000000,0,0,-255,0,-255,0,0,0,0,14.5,13.09,1.89805,11.192
271,90,0,2.56919,35.1665,0,321,0,0.00000000,0.00000000,0,0,-255,0,-255,0,0,0,0,14.5,13.09,1.89805,11.192
272,92,0,2.57712,35.1802,0,326,0,0.00000000,0.00000000,0,0,-255,0,-255,0,0,0,0,14.4,13.09,1.88496,11.205
273,91,0,2.58706,35.2139,0,330,0,0.00000000,0.00000000,0,0,-255,0,-255,0,0,0,0,14.2,13.09,1.85878,11.2312
274,92,0,2.59702,35.2534,0,330,0,0.00000000,0.00000000,0,0,-255,0,-255,0,0,0,0,14.2,13.09,1.85878,11.2312
275,91,0,2.60695,35.2803,0,328,0,0.00000000,0.00000000,0,0,-255,0,-255,0,0,0,0,14.2,13.09,1.85878,11.2312
276,90,0,2.6169,35.3084,0,331,0,0.00000000,0.00000000,0,0,-255,0,-255,0,0,0,0,14.5,13.09,1.89805,11.192
277,90,0,2.62688,35.3367,0,330,0,0.00000000,0.00000000,0,0,-255,0,-255,0,0,0,0,14.6,13.09,1.91114,11.1789
278,90,0,2.63683,35.3614,0,330,0,0.00000000,0.00000000,0,0,-255,0,-255,0,0,0,0,14.6,13.09,1.91114,11.1789
279,90,0,2.64684,35.3833,0,330,0,0.00000000,0.00000000,0,0,-255,0,-255,0,0,0,0,14.6,13.09,1.91114,11.1789
280,90,0,2.65681,35.3984,0,330,0,0.00000000,0.00000000,0,0,-255,0,-255,0,0,0,0,15,13.09,1.9635,11.1265
281,89,0,2.66682,35.4129,0,329,0,0.00000000,0.00000000,0,0,-255,0,-255,0,0,0,0,15,13.09,1.9635,11.1265
282,89,0,2.6768,35.4246,0,329,0,0.00000000,0.00000000,0,0,-255,0,-255,0,0,0,0,15.4,13.09,2.01586,11.0741
283,88,0,2.68677,35.4388,0,330,0,0.00000000,0.00000000,0,0,-255,0,-255,0,0,0,0,15.4,13.09,2.01586,11.0741
284,88,0,2.69678,35.4457,0,328,0,0.00000000,0.00000000,0,0,-255,0,-255,0,0,0,0,15.9,13.09,2.08131,11.0087
285,89,0,2.70479,35.454,0,332,0,0.00000000,0.00000000,0,0,-255,0,-255,0,0,0,0,15.9,13.09,2.08131,11.0087
286,90,0,2.71481,35.4742,0,332,0,0.00000000,0.00000000,0,0,-255,0,-255,0,0,0,0,15.9,13.09,2.08131,11.0087
287,91,0,2.7248,35.4884,0,330,0,0.00000000,0.00000000,0,0,-255,0,-255,0,0,0,0,15.9,13.09,2.08131,11.0087
288,90,0,2.7348,35.4902,0,329,0,0.00000000,0.00000000,0,0,-255,0,-255,0,0,0,0,15.8,13.09,2.06822,11.0218
289,91,0,2.74481,35.494,0,329,0,0.00000000,0.00000000,0,0,-255,0,-255,0,0,0,0,15.8,13.09,2.06822,11.0218
290,90,0,2.75483,35.4974,0,329,0,0.00000000,0.00000000,0,0,-255,0,-255,0,0,0,0,15.5,13.1,2.0305,11.0695
291,90,0,2.76486,35.4995,0,329,0,0.00000000,0.00000000,0,0,-255,0,-255,0,0,0,0,15.5,13.1,2.0305,11.0695
292,90,0,2.77488,35.5041,0,331,0,0.00000000,0.00000000,0,0,-255,0,-255,0,0,0,0,15.1,13.09,1.97659,11.1134
293,89,0,2.7849,35.5115,0,329,0,0.00000000,0.00000000,0,0,-255,0,-255,0,0,0,0,15.1,13.09,1.97659,11.1134
294,91,0,2.79492,35.5115,0,328,0,0.00000000,0.00000000,0,0,-255,0,-255,0,0,0,0,14.6,13.09,1.91114,11.1789
295,90,0,2.80494,35.5116,0,329,0,0.00000000,0.00000000,0,0,-255,0,-255,0,0,0,0,14.1,13.09,1.84569,11.2443
296,90,0,2.81495,35.5177,0,328,0,0.00000000,0.00000000,0,0,-255,0,-255,0,0,0,0,14.1,13.09,1.84569,11.2443
297,90,0,2.82495,35.5162,0,329,0,0.00000000,0.00000000,0,0,-255,0,-255,0,0,0,0,14.1,13.09,1.84569,11.2443
298,90,0,2.83301,35.5162,0,329,0,0.00000000,0.00000000,0,0,-255,0,-255,0,0,0,0,14.1,13.09,1.84569,11.2443
299,89,0,2.84301,35.5193,0,330,0,0.00000000,0.00000000,0,0,-255,0,-255,0,0,0,0,14.1,13.09,1.84569,11.2443
300,90,0,2.85304,35.521,0,329,0,0.00000000,0.00000000,0,0,-255,0,-255,0,0,0,0,14.1,13.09,1.84569,11.2443
301,90,0,2.86303,35.523,0,329,0,0.00000000,0.00000000,0,0,-255,0,-255,0,0,0,0,14.1,13.09,1.84569,11.2443
302,90,0,2.87305,35.5249,0,331,0,0.00000000,0.00000000,0,0,-255,0,-255,0,0,0,0,13.9,13.09,1.81951,11.2705
303,89,0,2.88308,35.5256,0,329,0,0.00000000,0.00000000,0,0,-255,0,-255,0,0,0,0,14,13.09,1.8326,11.2574
304,88,0,2.89312,35.5228,0,329,0,0.00000000,0.00000000,0,0,-255,0,-255,0,0,0,0,14,13.09,1.8326,11.2574
305,89,0,2.90314,35.5247,0,331,0,0.00000000,0.00000000,0,0,-255,0,-255,0,0,0,0,14.1,13.09,1.84569,11.2443
306,89,0,2.91318,35.5271,0,327,0,0.00000000,0.00000000,0,0,-255,0,-255,0,0,0,0,14.1,13.09,1.84569,11.2443
307,89,0,2.92321,35.5162,0,327,0,0.00000000,0.00000000,0,0,-255,0,-255,0,0,0,0,13.8,13.09,1.80642,11.2836
308,88,0,2.93318,35.5238,0,332,0,0.00000000,0.00000000,0,0,-255,0,-255,0,0,0,0,13.8,13.09,1.80642,11.2836
309,88,0,2.94322,35.5275,0,329,0,0.00000000,0.00000000,0,0,-255,0,-255,0,0,0,0,13.7,13.09,1.79333,11.2967
310,89,0,2.95322,35.5329,0,332,0,0.00000000,0.00000000,0,0,-255,0,-255,0,0,0,0,13.7,13.09,1.79333,11.2967
311,91,0,2.96126,35.5524,0,337,0,0.00000000,0.00000000,0,0,-255,0,-255,0,0,0,0,13.5,13.09,1.76715,11.3228
312,96,0,2.97129,35.5742,0,329,0,0.00000000,0.00000000,0,0,-255,0,-255,0,0,0,0,13.5,13.09,1.76715,11.3228
313,96,0,2.98131,35.5615,0,329,0,0.00000000,0.00000000,0,0,-255,0,-255,0,0,0,0,13.5,13.09,1.76715,11.3228
314,97,0,2.99136,35.5603,0,330,0,0.00000000,0.00000000,0,0,-255,0,-255,0,0,0,0,13.4,13.08,1.75272,11.3273
315,96,0,3.00138,35.556,0,326,0,0.00000000,0.00000000,0,0,-255,0,-255,0,0,0,0,14.3,13.08,1.87044,11.2096
316,96,0,3.01142,35.5418,0,326,0,0.00000000,0.00000000,0,0,-255,0,-255,0,0,0,0,14.3,13.08,1.87044,11.2096
317,94,0,3.02144,35.527,0,327,0,0.00000000,0.00000000,0,0,-255,0,-255,0,0,0,0,14.9,13.08,1.94892,11.1311
318,90,0,3.03148,35.5307,0,330,0,0.00000000,0.00000000,0,0,-255,0,-255,0,0,0,0,14.9,13.08,1.94892,11.1311
319,92,0,3.04148,35.5325,0,328,0,0.00000000,0.00000000,0,0,-255,0,-255,0,0,0,0,15.5,13.08,2.0274,11.0526
320,92,0,3.05153,35.5279,0,328,0,0.00000000,0.00000000,0,0,-255,0,-255,0,0,0,0,15.5,13.08,2.0274,11.0526
321,91,0,3.06154,35.5253,0,329,0,0.00000000,0.00000000,0,0,-255,0,-255,0,0,0,0,16.2,13.09,2.12058,10.9694
322,92,0,3.07156,35.5375,0,333,0,0.00000000,0.00000000,0,0,-255,0,-255,0,0,0,0,16.2,13.09,2.12058,10.9694
323,91,0,3.08158,35.537,0,328,0,0.00000000,0.00000000,0,0,-255,0,-255,0,0,0,0,16.2,13.09,2.12058,10.9694
324,91,0,3.08962,35.5298,0,330,0,0.00000000,0.00000000,0,0,-255,0,-255,0,0,0,0,16.3,13.09,2.13367,10.9563
325,91,0,3.09963,35.5387,0,330,0,0.00000000,0.00000000,0,0,-255,0,-255,0,0,0,0,15.2,13.09,1.98968,11.1003
326,91,0,3.10966,35.5394,0,333,0,0.00000000,0.00000000,0,0,-255,0,-255,0,0,0,0,15.2,13.09,1.98968,11.1003
327,92,0,3.11973,35.5534,0,331,0,0.00000000,0.00000000,0,0,-255,0,-255,0,0,0,0,15.4,13.1,2.0174,11.0826
328,93,0,3.12973,35.535,0,327,0,0.00000000,0.00000000,0,0,-255,0,-255,0,0,0,0,15.4,13.1,2.0174,11.0826
329,92,0,3.13973,35.5246,0,328,0,0.00000000,0.00000000,0,0,-255,0,-255,0,0,0,0,15.4,13.1,2.0174,11.0826
330,90,0,3.14976,35.5174,0,328,0,0.00000000,0.00000000,0,0,-255,0,-255,0,0,0,0,15.7,13.1,2.0567,11.0433
331,88,0,3.15978,35.5164,0,330,0,0.00000000,0.00000000,0,0,-255,0,-255,0,0,0,0,15.7,13.1,2.0567,11.0433
332,87,0,3.1698,35.5265,0,331,0,0.00000000,0.00000000,0,0,-255,0,-255,0,0,0,0,15.2,13.1,1.9912,11.1088
333,88,0,3.17981,35.5278,0,329,0,0.00000000,0.00000000,0,0,-255,0,-255,0,0,0,0,15.2,13.1,1.9912,11.1088
334,89,0,3.18987,35.5336,0,331,0,0.00000000,0.00000000,0,0,-255,0,-255,0,0,0,0,15.7,13.09,2.05513,11.0349
335,91,0,3.19989,35.5435,0,332,0,0.00000000,0.00000000,0,0,-255,0,-255,0,0,0,0,15.9,13.1,2.0829,11.0171
336,91,0,3.2099,35.5446,0,328,0,0.00000000,0.00000000,0,0,-255,0,-255,0,0,0,0,15.9,13.1,2.0829,11.0171
337,91,0,3.21794,35.5366,0,328,0,0.00000000,0.00000000,0,0,-255,0,-255,0,0,0,0,15.4,13.1,2.0174,11.0826
338,90,0,3.22798,35.5397,0,330,0,0.00000000,0.00000000,0,0,-255,0,-255,0,0,0,0,15.4,13.1,2.0174,11.0826
339,89,0,3.23799,35.5404,0,328,0,0.00000000,0.00000000,0,0,-255,0,-255,0,0,0,0,15.4,13.1,2.0174,11.0826
340,91,0,3.24799,35.5354,0,329,0,0.00000000,0.00000000,0,0,-255,0,-255,0,0,0,0,14.9,13.1,1.9519,11.1481
341,90,0,3.25805,35.5337,0,330,0,0.00000000,0.00000000,0,0,-255,0,-255,0,0,0,0,15.8,13.1,2.0698,11.0302
342,90,0,3.26804,35.5365,0,329,0,0.00000000,0.00000000,0,0,-255,0,-255,0,0,0,0,15.8,13.1,2.0698,11.0302
343,90,0,3.27807,35.5368,0,329,0,0.00000000,0.00000000,0,0,-255,0,-255,0,0,0,0,15.2,13.1,1.9912,11.1088
344,90,0,3.2881,35.5392,0,330,0,0.00000000,0.00000000,0,0,-255,0,-255,0,0,0,0,15.2,13.1,1.9912,11.1088
345,90,0,3.29811,35.5384,0,330,0,0.00000000,0.00000000,0,0,-255,0,-255,0,0,0,0,15.3,13.09,2.00277,11.0872
346,90,0,3.30818,35.5428,0,330,0,0.00000000,0.00000000,0,0,-255,0,-255,0,0,0,0,15.3,13.09,2.00277,11.0872
347,90,0,3.31819,35.5418,0,329,0,0.00000000,0.00000000,0,0,-255,0,-255,0,0,0,0,15.3,13.09,2.00277,11.0872
348,88,0,3.32823,35.5371,0,329,0,0.00000000,0.00000000,0,0,-255,0,-255,0,0,0,0,15.3,13.1,2.0043,11.0957
349,89,0,3.33825,35.5329,0,327,0,0.00000000,0.00000000,0,0,-255,0,-255,0,0,0,0,15.1,13.09,1.97659,11.1134
350,89,0,3.34624,35.5256,0,328,0,0.00000000,0.00000000,0,0,-255,0,-255,0,0,0,0,15.1,13.09,1.97659,11.1134
351,88,0,3.35627,35.5294,0,329,0,0.00000000,0.00000000,0,0,-255,0,-255,0,0,0,0,14.2,13.09,1.85878,11.2312
352,88,0,3.3663,35.5301,0,330,0,0.00000000,0.00000000,0,0,-255,0,-255,0,0,0,0,14.2,13.09,1.85878,11.2312
353,88,0,3.37635,35.5319,0,328,0,0.00000000,0.00000000,0,0,-255,0,-255,0,0,0,0,14.2,13.09,1.85878,11.2312
354,87,0,3.38634,35.5266,0,328,0,0.00000000,0.00000000,0,0,-255,0,-255,0,0,0,0,14.2,13.09,1.85878,11.2312
355,88,0,3.39636,35.5242,0,331,0,0.00000000,0.00000000,0,0,-255,0,-255,0,0,0,0,14.2,13.09,1.85878,11.2312
356,88,0,3.40639,35.5356,0,331,0,0.00000000,0.00000000,0,0,-255,0,-255,0,0,0,0,14.2,13.09,1.85878,11.2312
357,89,0,3.41641,35.5369,0,331,0,0.00000000,0.00000000,0,0,-255,0,-255,0,0,0,0,14.2,13.09,1.85878,11.2312
358,88,0,3.42643,35.5406,0,329,0,0.00000000,0.00000000,0,0,-255,0,-255,0,0,0,0,14.2,13.09,1.85878,11.2312
359,91,0,3.43645,35.541,0,332,0,0.00000000,0.00000000,0,0,-255,0,-255,0,0,0,0,14.2,13.09,1.85878,11.2312
360,91,0,3.44651,35.5683,0,333,0,0.00000000,0.00000000,0,0,-255,0,-255,0,0,0,0,14.2,13.09,1.85878,11.2312
361,93,0,3.45652,35.5563,0,328,0,0.00000000,0.00000000,0,0,-255,0,-255,0,0,0,0,14.2,13.09,1.85878,11.2312
362,92,0,3.46659,35.5787,0,340,0,0.00000000,0.00000000,0,0,-255,0,-255,0,0,0,0,14.1,13.09,1.84569,11.2443
363,91,0,3.4746,35.6029,0,336,0,0.00000000,0.00000000,0,0,-255,0,-255,0,0,0,0,14,13.09,1.8326,11.2574
364,89,0,3.48465,35.634,0,341,0,0.00000000,0.00000000,0,0,-255,0,-255,0,0,0,0,14,13.09,1.8326,11.2574
365,90,0,3.4947,35.6718,0,340,0,0.00000000,0.00000000,0,0,-255,0,-255,0,0,0,0,13.7,13.08,1.79196,11.288
366,90,0,3.50476,35.6952,0,338,0,0.00000000,0.00000000,0,0,-255,0,-255,0,0,0,0,13.7,13.08,1.79196,11.288
367,90,0,3.51486,35.7205,0,340,0,0.00000000,0.00000000,0,0,-255,0,-255,0,0,0,0,13.6,13.08,1.77888,11.3011
368,90,0,3.52495,35.7472,0,340,0,0.00000000,0.00000000,0,0,-255,0,-255,0,0,0,0,13.6,13.08,1.77888,11.3011
369,89,0,3.53501,35.7664,0,340,0,0.00000000,0.00000000,0,0,-255,0,-255,0,0,0,0,13.6,13.08,1.77888,11.3011
370,91,0,3.5451,35.7807,0,338,0,0.00000000,0.00000000,0,0,-255,0,-255,0,0,0,0,13.6,13.08,1.77888,11.3011
371,90,0,3.55519,35.7905,0,339,0,0.00000000,0.00000000,0,0,-255,0,-255,0,0,0,0,13.7,13.08,1.79196,11.288
372,89,0,3.56531,35.8105,0,340,0,0.00000000,0.00000000,0,0,-255,0,-255,0,0,0,0,13.7,13.08,1.79196,11.288
373,90,0,3.57542,35.819,0,340,0,0.00000000,0.00000000,0,0,-255,0,-255,0,0,0,0,13.7,13.08,1.79196,11.288
374,89,0,3.58553,35.8349,0,341,0,0.00000000,0.00000000,0,0,-255,0,-255,0,0,0,0,13.9,13.08,1.81812,11.2619
375,90,0,3.59565,35.8532,0,340,0,0.00000000,0.00000000,0,0,-255,0,-255,0,0,0,0,14.1,13.09,1.84569,11.2443
376,91,0,3.60372,35.8549,0,338,0,0.00000000,0.00000000,0,0,-255,0,-255,0,0,0,0,14.1,13.09,1.84569,11.2443
377,91,0,3.61386,35.8628,0,340,0,0.00000000,0.00000000,0,0,-255,0,-255,0,0,0,0,14.2,13.09,1.85878,11.2312
378,90,0,3.62398,35.8683,0,339,0,0.00000000,0.00000000,0,0,-255,0,-255,0,0,0,0,14.2,13.09,1.85878,11.2312
379,89,0,3.63408,35.8703,0,339,0,0.00000000,0.00000000,0,0,-255,0,-255,0,0,0,0,14.2,13.09,1.85878,11.2312
380,89,0,3.64418,35.8737,0,339,0,0.00000000,0.00000000,0,0,-255,0,-255,0,0,0,0,14,13.09,1.8326,11.2574
381,89,0,3.65432,35.8745,0,338,0,0.00000000,0.00000000,0,0,-255,0,-255,0,0,0,0,14,13.09,1.8326,11.2574
382,88,0,3.66443,35.882,0,342,0,0.00000000,0.00000000,0,0,-255,0,-255,0,0,0,0,14.1,13.09,1.84569,11.2443
383,89,0,3.67457,35.9015,0,342,0,0.00000000,0.00000000,0,0,-255,0,-255,0,0,0,0,13.7,13.09,1.79333,11.2967
384,89,0,3.6847,35.8964,0,337,0,0.00000000,0.00000000,0,0,-255,0,-255,0,0,0,0,13.7,13.09,1.79333,11.2967
385,89,0,3.69483,35.8881,0,337,0,0.00000000,0.00000000,0,0,-255,0,-255,0,0,0,0,13.5,13.09,1.76715,11.3228
386,89,0,3.70497,35.8808,0,337,0,0.00000000,0.00000000,0,0,-255,0,-255,0,0,0,0,13.5,13.09,1.76715,11.3228
387,89,0,3.71506,35.8743,0,337,0,0.00000000,0.00000000,0,0,-255,0,-255,0,0,0,0,13.5,13.09,1.76715,11.3228
388,89,0,3.72521,35.8713,0,339,0,0.00000000,0.00000000,0,0,-255,0,-255,0,0,0,0,13.5,13.09,1.76715,11.3228
389,87,0,3.73329,35.8794,0,343,0,0.00000000,0.00000000,0,0,-255,0,-255,0,0,0,0,13.6,13.09,1.78024,11.3098
390,87,0,3.74339,35.8952,0,340,0,0.00000000,0.00000000,0,0,-255,0,-255,0,0,0,0,13.6,13.09,1.78024,11.3098
391,89,0,3.75354,35.8962,0,339,0,0.00000000,0.00000000,0,0,-255,0,-255,0,0,0,0,13.4,13.1,1.7554,11.3446
392,89,0,3.76365,35.8988,0,338,0,0.00000000,0.00000000,0,0,-255,0,-255,0,0,0,0,13.4,13.1,1.7554,11.3446
393,89,0,3.77377,35.9008,0,340,0,0.00000000,0.00000000,0,0,-255,0,-255,0,0,0,0,13.3,13.1,1.7423,11.3577
394,89,0,3.78392,35.9051,0,340,0,0.00000000,0.00000000,0,0,-255,0,-255,0,0,0,0,13.3,13.1,1.7423,11.3577
395,89,0,3.79406,35.9081,0,340,0,0.00000000,0.00000000,0,0,-255,0,-255,0,0,0,0,13.3,13.1,1.7423,11.3577
396,89,0,3.80416,35.9115,0,340,0,0.00000000,0.00000000,0,0,-255,0,-255,0,0,0,0,13.9,13.1,1.8209,11.2791
397,89,0,3.81431,35.9132,0,339,0,0.00000000,0.00000000,0,0,-255,0,-255,0,0,0,0,13.7,13.11,1.79607,11.3139
398,88,0,3.82443,35.905,0,336,0,0.00000000,0.00000000,0,0,-255,0,-255,0,0,0,0,13.7,13.11,1.79607,11.3139
399,87,0,3.83459,35.9079,0,339,0,0.00000000,0.00000000,0,0,-255,0,-255,0,0,0,0,13.7,13.1,1.7947,11.3053
400,90,0,3.84469,35.9056,0,338,0,0.00000000,0.00000000,0,0,-255,0,-255,0,0,0,0,13.7,13.1,1.7947,11.3053
401,89,0,3.85483,35.9074,0,341,0,0.00000000,0.00000000,0,0,-255,0,-255,0,0,0,0,13.8,13.1,1.8078,11.2922
402,90,0,3.86294,35.9188,0,346,0,0.00000000,0.00000000,0,0,-255,0,-255,0,0,0,0,13.8,13.1,1.8078,11.2922
403,90,0,3.87309,35.9451,0,340,0,0.00000000,0.00000000,0,0,-255,0,-255,0,0,0,0,14,13.1,1.834,11.266
404,94,0,3.88323,35.9364,0,336,0,0.00000000,0.00000000,0,0,-255,0,-255,0,0,0,0,14,13.1,1.834,11.266
405,94,0,3.89336,35.9223,0,337,0,0.00000000,0.00000000,0,0,-255,0,-255,0,0,0,0,13.4,13.1,1.7554,11.3446
406,92,0,3.90346,35.9159,0,338,0,0.00000000,0.00000000,0,0,-255,0,-255,0,0,0,0,13.4,13.1,1.7554,11.3446
407,91,0,3.91362,35.912,0,339,0,0.00000000,0.00000000,0,0,-255,0,-255,0,0,0,0,13.6,13.09,1.78024,11.3098
408,90,0,3.92373,35.9064,0,339,0,0.00000000,0.00000000,0,0,-255,0,-255,0,0,0,0,13.6,13.09,1.78024,11.3098
409,88,0,3.93386,35.9106,0,340,0,0.00000000,0.00000000,0,0,-255,0,-255,0,0,0,0,13.5,13.09,1.76715,11.3228
410,90,0,3.944,35.911,0,338,0,0.00000000,0.00000000,0,0,-255,0,-255,0,0,0,0,13.5,13.09,1.76715,11.3228
411,90,0,3.95413,35.9117,0,340,0,0.00000000,0.00000000,0,0,-255,0,-255,0,0,0,0,13.4,13.09,1.75406,11.3359
412,90,0,3.96427,35.9147,0,340,0,0.00000000,0.00000000,0,0,-255,0,-255,0,0,0,0,13.4,13.09,1.75406,11.3359
413,90,0,3.97441,35.9139,0,340,0,0.00000000,0.00000000,0,0,-255,0,-255,0,0,0,0,13.4,13.09,1.75406,11.3359
414,88,0,3.98456,35.9183,0,340,0,0.00000000,0.00000000,0,0,-255,0,-255,0,0,0,0,13.3,13.09,1.74097,11.349
415,88,0,3.99264,35.9211,0,340,0,0.00000000,0.00000000,0,0,-255,0,-255,0,0,0,0,13.5,13.1,1.7685,11.3315
416,90,0,4.00276,35.9274,0,340,0,0.00000000,0.00000000,0,0,-255,0,-255,0,0,0,0,13.5,13.1,1.7685,11.3315
417,90,0,4.01291,35.9234,0,340,0,0.00000000,0.00000000,0,0,-255,0,-255,0,0,0,0,13.2,13.1,1.7292,11.3708
418,90,0,4.02306,35.9207,0,338,0,0.00000000,0.00000000,0,0,-255,0,-255,0,0,0,0,13.2,13.1,1.7292,11.3708
419,90,0,4.03318,35.9113,0,336,0,0.00000000,0.00000000,0,0,-255,0,-255,0,0,0,0,13.1,13.1,1.7161,11.3839
420,87,0,4.04331,35.8984,0,339,0,0.00000000,0.00000000,0,0,-255,0,-255,0,0,0,0,13.1,13.1,1.7161,11.3839
421,87,0,4.05344,35.9062,0,342,0,0.00000000,0.00000000,0,0,-255,0,-255,0,0,0,0,12.8,13.1,1.6768,11.4232
422,87,0,4.06355,35.9146,0,341,0,0.00000000,0.00000000,0,0,-255,0,-255,0,0,0,0,12.8,13.1,1.6768,11.4232
423,88,0,4.0737,35.9203,0,340,0,0.00000000,0.00000000,0,0,-255,0,-255,0,0,0,0,12.7,13.1,1.6637,11.4363
424,88,0,4.08383,35.9224,0,340,0,0.00000000,0.00000000,0,0,-255,0,-255,0,0,0,0,12.7,13.1,1.6637,11.4363
425,89,0,4.09397,35.9242,0,340,0,0.00000000,0.00000000,0,0,-255,0,-255,0,0,0,0,12.2,13.1,1.5982,11.5018
426,89,0,4.10411,35.9237,0,339,0,0.00000000,0.00000000,0,0,-255,0,-255,0,0,0,0,12.2,13.1,1.5982,11.5018
427,89,0,4.11424,35.9227,0,339,0,0.00000000,0.00000000,0,0,-255,0,-255,0,0,0,0,12.2,13.1,1.5982,11.5018
428,89,0,4.12233,35.9207,0,339,0,0.00000000,0.00000000,0,0,-255,0,-255,0,0,0,0,12.1,13.1,1.5851,11.5149
429,88,0,4.13249,35.9109,0,338,0,0.00000000,0.00000000,0,0,-255,0,-255,0,0,0,0,12.1,13.1,1.5851,11.5149
430,89,0,4.14261,35.9155,0,341,0,0.00000000,0.00000000,0,0,-255,0,-255,0,0,0,0,12.1,13.1,1.5851,11.5149
431,89,0,4.15272,35.9136,0,339,0,0.00000000,0.00000000,0,0,-255,0,-255,0,0,0,0,12.4,13.1,1.6244,11.4756
432,90,0,4.16285,35.9156,0,339,0,0.00000000,0.00000000,0,0,-255,0,-255,0,0,0,0,12.4,13.1,1.6244,11.4756
433,89,0,4.17301,35.9152,0,340,0,0.00000000,0.00000000,0,0,-255,0,-255,0,0,0,0,13,13.1,1.703,11.397
434,88,0,4.18312,35.9143,0,338,0,0.00000000,0.00000000,0,0,-255,0,-255,0,0,0,0,13,13.1,1.703,11.397
435,88,0,4.19325,35.9066,0,338,0,0.00000000,0.00000000,0,0,-255,0,-255,0,0,0,0,13.6,13.1,1.7816,11.3184
436,88,0,4.20339,35.913,0,344,0,0.00000000,0.00000000,0,0,-255,0,-255,0,0,0,0,13.6,13.1,1.7816,11.3184
437,87,0,4.21354,35.9229,0,339,0,0.00000000,0.00000000,0,0,-255,0,-255,0,0,0,0,14.1,13.1,1.8471,11.2529
438,88,0,4.22366,35.9247,0,341,0,0.00000000,0.00000000,0,0,-255,0,-255,0,0,0,0,14.1,13.1,1.8471,11.2529
439,89,0,4.23379,35.9321,0,344,0,0.00000000,0.00000000,0,0,-255,0,-255,0,0,0,0,14.6,13.1,1.9126,11.1874
440,88,0,4.24394,35.9418,0,339,0,0.00000000,0.00000000,0,0,-255,0,-255,0,0,0,0,14.6,13.1,1.9126,11.1874
441,91,0,4.25204,35.9379,0,339,0,0.00000000,0.00000000,0,0,-255,0,-255,0,0,0,0,15,13.1,1.965,11.135
442,91,0,4.26219,35.9288,0,338,0,0.00000000,0.00000000,0,0,-255,0,-255,0,0,0,0,15,13.1,1.965,11.135
443,90,0,4.27234,35.9251,0,339,0,0.00000000,0.00000000,0,0,-255,0,-255,0,0,0,0,14.5,13.1,1.8995,11.2005
444,88,0,4.28244,35.9205,0,337,0,0.00000000,0.00000000,0,0,-255,0,-255,0,0,0,0,14.5,13.1,1.8995,11.2005
445,88,0,4.29258,35.9096,0,341,0,0.00000000,0.00000000,0,0,-255,0,-255,0,0,0,0,14.1,13.1,1.8471,11.2529
446,88,0,4.30274,35.9265,0,344,0,0.00000000,0.00000000,0,0,-255,0,-255,0,0,0,0,14.1,13.1,1.8471,11.2529
447,89,0,4.31286,35.9333,0,341,0,0.00000000,0.00000000,0,0,-255,0,-255,0,0,0,0,13.5,13.1,1.7685,11.3315
448,91,0,4.32302,35.935,0,338,0,0.00000000,0.00000000,0,0,-255,0,-255,0,0,0,0,13.5,13.1,1.7685,11.3315
449,90,0,4.33313,35.9294,0,340,0,0.00000000,0.00000000,0,0,-255,0,-255,0,0,0,0,13.6,13.1,1.7816,11.3184
450,91,0,4.34326,35.9275,0,341,0,0.00000000,0.00000000,0,0,-255,0,-255,0,0,0,0,13.6,13.1,1.7816,11.3184
451,91,0,4.35341,35.9415,0,348,0,0.00000000,0.00000000,0,0,-255,0,-255,0,0,0,0,13.6,13.1,1.7816,11.3184
452,92,0,4.36355,35.9811,0,350,0,0.00000000,0.00000000,0,0,-255,0,-255,0,0,0,0,13.8,13.09,1.80642,11.2836
453,95,0,4.37371,36.0123,0,349,0,0.00000000,0.00000000,0,0,-255,0,-255,0,0,0,0,14,13.09,1.8326,11.2574
454,95,0,4.38183,36.033,0,348,0,0.00000000,0.00000000,0,0,-255,0,-255,0,0,0,0,14,13.09,1.8326,11.2574
455,95,0,4.392,36.0596,0,350,0,0.00000000,0.00000000,0,0,-255,0,-255,0,0,0,0,14.6,13.09,1.91114,11.1789
456,92,0,4.40219,36.0854,0,348,0,0.00000000,0.00000000,0,0,-255,0,-255,0,0,0,0,14.6,13.09,1.91114,11.1789
457,92,0,4.41238,36.1085,0,350,0,0.00000000,0.00000000,0,0,-255,0,-255,0,0,0,0,15.3,13.1,2.0043,11.0957
458,91,0,4.42255,36.1331,0,350,0,0.00000000,0.00000000,0,0,-255,0,-255,0,0,0,0,15.3,13.1,2.0043,11.0957
459,92,0,4.43275,36.1523,0,350,0,0.00000000,0.00000000,0,0,-255,0,-255,0,0,0,0,14.8,13.1,1.9388,11.1612
460,91,0,4.44297,36.1666,0,348,0,0.00000000,0.00000000,0,0,-255,0,-255,0,0,0,0,14.8,13.1,1.9388,11.1612
461,91,0,4.45315,36.1719,0,347,0,0.00000000,0.00000000,0,0,-255,0,-255,0,0,0,0,14.9,13.1,1.9519,11.1481
462,90,0,4.46336,36.1832,0,349,0,0.00000000,0.00000000,0,0,-255,0,-255,0,0,0,0,14.9,13.1,1.9519,11.1481
463,89,0,4.47357,36.1928,0,350,0,0.00000000,0.00000000,0,0,-255,0,-255,0,0,0,0,14.8,13.1,1.9388,11.1612
464,89,0,4.48378,36.2194,0,353,0,0.00000000,0.00000000,0,0,-255,0,-255,0,0,0,0,14.8,13.1,1.9388,11.1612
465,89,0,4.49401,36.2289,0,350,0,0.00000000,0.00000000,0,0,-255,0,-255,0,0,0,0,14.6,13.1,1.9126,11.1874
466,91,0,4.50424,36.2393,0,351,0,0.00000000,0.00000000,0,0,-255,0,-255,0,0,0,0,14.6,13.1,1.9126,11.1874
467,90,0,4.5124,36.2445,0,349,0,0.00000000,0.00000000,0,0,-255,0,-255,0,0,0,0,14.6,13.1,1.9126,11.1874
468,90,0,4.52264,36.2482,0,349,0,0.00000000,0.00000000,0,0,-255,0,-255,0,0,0,0,14.6,13.1,1.9126,11.1874
469,90,0,4.53287,36.2467,0,346,0,0.00000000,0.00000000,0,0,-255,0,-255,0,0,0,0,14.5,13.1,1.8995,11.2005
470,89,0,4.54311,36.2403,0,349,0,0.00000000,0.00000000,0,0,-255,0,-255,0,0,0,0,14.5,13.1,1.8995,11.2005
471,89,0,4.5533,36.2441,0,348,0,0.00000000,0.00000000,0,0,-255,0,-255,0,0,0,0,13.7,13.11,1.79607,11.3139
472,89,0,4.56353,36.2496,0,350,0,0.00000000,0.00000000,0,0,-255,0,-255,0,0,0,0,13.7,13.11,1.79607,11.3139
473,89,0,4.57378,36.2557,0,347,0,0.00000000,0.00000000,0,0,-255,0,-255,0,0,0,0,13.5,13.1,1.7685,11.3315
474,88,0,4.58402,36.2569,0,350,0,0.00000000,0.00000000,0,0,-255,0,-255,0,0,0,0,13.5,13.1,1.7685,11.3315
475,86,0,4.59425,36.2618,0,348,0,0.00000000,0.00000000,0,0,-255,0,-255,0,0,0,0,13.4,13.1,1.7554,11.3446
476,87,0,4.60445,36.2705,0,352,0,0.00000000,0.00000000,0,0,-255,0,-255,0,0,0,0,13.4,13.1,1.7554,11.3446
477,88,0,4.6147,36.2793,0,349,0,0.00000000,0.00000000,0,0,-255,0,-255,0,0,0,0,13.2,13.11,1.73052,11.3795
478,88,0,4.62495,36.2878,0,351,0,0.00000000,0.00000000,0,0,-255,0,-255,0,0,0,0,13.2,13.11,1.73052,11.3795
479,89,0,4.63515,36.2846,0,347,0,0.00000000,0.00000000,0,0,-255,0,-255,0,0,0,0,13.5,13.1,1.7685,11.3315
480,89,0,4.64334,36.2849,0,351,0,0.00000000,0.00000000,0,0,-255,0,-255,0,0,0,0,13.5,13.1,1.7685,11.3315
481,90,0,4.65359,36.2899,0,349,0,0.00000000,0.00000000,0,0,-255,0,-255,0,0,0,0,13.4,13.1,1.7554,11.3446
482,91,0,4.66384,36.2937,0,351,0,0.00000000,0.00000000,0,0,-255,0,-255,0,0,0,0,13.4,13.1,1.7554,11.3446
483,91,0,4.67406,36.2951,0,349,0,0.00000000,0.00000000,0,0,-255,0,-255,0,0,0,0,13.6,13.1,1.7816,11.3184
484,91,0,4.68429,36.2914,0,349,0,0.00000000,0.00000000,0,0,-255,0,-255,0,0,0,0,13.6,13.1,1.7816,11.3184
485,90,0,4.69457,36.2915,0,349,0,0.00000000,0.00000000,0,0,-255,0,-255,0,0,0,0,13.6,13.1,1.7816,11.3184
486,90,0,4.7048,36.2937,0,350,0,0.00000000,0.00000000,0,0,-255,0,-255,0,0,0,0,13.6,13.1,1.7816,11.3184
487,90,0,4.71502,36.3,0,351,0,0.00000000,0.00000000,0,0,-255,0,-255,0,0,0,0,13.4,13.1,1.7554,11.3446
488,91,0,4.72528,36.305,0,349,0,0.00000000,0.00000000,0,0,-255,0,-255,0,0,0,0,13.4,13.1,1.7554,11.3446
489,89,0,4.7355,36.2967,0,349,0,0.00000000,0.00000000,0,0,-255,0,-255,0,0,0,0,13,13.1,1.703,11.397
490,89,0,4.74576,36.2975,0,350,0,0.00000000,0.00000000,0,0,-255,0,-255,0,0,0,0,13,13.1,1.703,11.397
491,89,0,4.75598,36.2951,0,348,0,0.00000000,0.00000000,0,0,-255,0,-255,0,0,0,0,13,13.1,1.703,11.397
492,88,0,4.76626,36.2976,0,352,0,0.00000000,0.00000000,0,0,-255,0,-255,0,0,0,0,13.4,13.1,1.7554,11.3446
493,88,0,4.7744,36.2932,0,345,0,0.00000000,0.00000000,0,0,-255,0,-255,0,0,0,0,13.4,13.1,1.7554,11.3446
494,87,0,4.78465,36.2772,0,346,0,0.00000000,0.00000000,0,0,-255,0,-255,0,0,0,0,13.4,13.1,1.7554,11.3446
495,84,0,4.79488,36.2622,0,347,0,0.00000000,0.00000000,0,0,-255,0,-255,0,0,0,0,13.1,13.1,1.7161,11.3839
496,85,0,4.80511,36.2892,0,357,0,0.00000000,0.00000000,0,0,-255,0,-255,0,0,0,0,13.1,13.1,1.7161,11.3839
497,88,0,4.81535,36.2909,0,347,0,0.00000000,0.00000000,0,0,-255,0,-255,0,0,0,0,12.7,13.1,1.6637,11.4363
498,90,0,4.82563,36.2887,0,351,0,0.00000000,0.00000000,0,0,-255,0,-255,0,0,0,0,12.7,13.1,1.6637,11.4363
499,89,0,4.83586,36.2886,0,350,0,0.00000000,0.00000000,0,0,-255,0,-255,0,0,0,0,12.9,13.1,1.6899,11.4101
500,88,0,4.84607,36.289,0,350,0,0.00000000,0.00000000,0,0,-255,0,-255,0,0,0,0,12.9,13.1,1.6899,11.4101
501,90,0,4.8563,36.2902,0,350,0,0.00000000,0.00000000,0,0,-255,0,-255,0,0,0,0,12.6,13.1,1.6506,11.4494
502,90,0,4.86653,36.2913,0,350,0,0.00000000,0.00000000,0,0,-255,0,-255,0,0,0,0,12.6,13.1,1.6506,11.4494
503,90,0,4.87679,36.2979,0,351,0,0.00000000,0.00000000,0,0,-255,0,-255,0,0,0,0,12.5,13.1,1.6375,11.4625
504,91,0,4.88704,36.2932,0,348,0,0.00000000,0.00000000,0,0,-255,0,-255,0,0,0,0,12.5,13.1,1.6375,11.4625
505,89,0,4.89727,36.2932,0,350,0,0.00000000,0.00000000,0,0,-255,0,-255,0,0,0,0,12.5,13.1,1.6375,11.4625
506,90,0,4.90546,36.2855,0,346,0,0.00000000,0.00000000,0,0,-255,0,-255,0,0,0,0,12.6,13.1,1.6506,11.4494
507,88,0,4.91568,36.2796,0,352,0,0.00000000,0.00000000,0,0,-255,0,-255,0,0,0,0,12.9,13.1,1.6899,11.4101
508,88,0,4.92593,36.2816,0,346,0,0.00000000,0.00000000,0,0,-255,0,-255,0,0,0,0,12.9,13.1,1.6899,11.4101
509,87,0,4.93617,36.2648,0,348,0,0.00000000,0.00000000,0,0,-255,0,-255,0,0,0,0,12.9,13.1,1.6899,11.4101
510,84,0,4.94641,36.2663,0,348,0,0.00000000,0.00000000,0,0,-255,0,-255,0,0,0,0,12.9,13.1,1.6899,11.4101
511,84,0,4.95658,35.9492,0,172,0,0.00000000,0.00000000,0,0,-255,0,-255,0,0,0,0,12.6,13.1,1.6506,11.4494
512,84,0,4.96662,34.9227,0,84,0,0.00000000,0.00000000,0,0,-255,0,-255,0,0,0,0,12.6,13.1,1.6506,11.4494
513,84,0,4.97631,33.832,0,0,0,0.00000000,0.00000000,0,0,-255,0,-255,0,0,0,0,12.6,13.1,1.6506,11.4494
514,84,0,4.98568,32.4626,0,0,0,0.00000000,0.00000000,0,0,-255,0,-255,0,0,0,0,12.7,13.09,1.66243,11.4276
515,0,0,4.99463,31.1966,0,0,0,0.00000000,0.00000000,0,0,-255,0,-255,0,0,0,0,14.5,13.09,1.89805,11.192
516,0,0,5.00326,30.0106,0,0,0,0.00000000,0.00000000,0,0,-255,0,-255,0,0,0,0,14.5,13.09,1.89805,11.192
517,0,0,5.01158,28.9002,0,0,0,0.00000000,0.00000000,0,0,-255,0,-255,0,0,0,0,14.5,13.09,1.89805,11.192
518,0,0,5.01959,27.8589,0,0,0,0.00000000,0.00000000,0,0,-255,0,-255,0,0,0,0,17.1,13.09,2.23839,10.8516
519,0,0,5.02577,27.075,0,0,0,0.00000000,0.00000000,0,0,-255,0,-255,0,0,0,0,17.1,13.09,2.23839,10.8516
520,0,0,5.03329,26.1404,0,0,0,0.00000000,0.00000000,0,0,-255,0,-255,0,0,0,0,17.1,13.09,2.23839,10.8516
521,0,0,5.04053,25.2613,0,0,0,0.00000000,0.00000000,0,0,-255,0,-255,0,0,0,0,17.1,13.09,2.23839,10.8516
522,0,0,5.04754,24.4289,0,0,0,0.00000000,0.00000000,0,0,-255,0,-255,0,0,0,0,26.4,13.09,3.45576,9.63424
523,0,0,5.05431,23.6412,0,0,0,0.00000000,0.00000000,0,0,-255,0,-255,0,0,0,0,26.4,13.09,3.45576,9.63424
524,0,0,5.06087,22.893,0,0,0,0.00000000,0.00000000,0,0,-255,0,-255,0,0,0,0,33.1,13.1,4.3361,8.7639
525,0,0,5.06725,22.1793,0,0,0,0.00000000,0.00000000,0,0,-255,0,-255,0,0,0,0,33.1,13.1,4.3361,8.7639
526,0,0,5.07341,21.5014,0,0,0,0.00000000,0.00000000,0,0,-255,0,-255,0,0,0,0,40.1,13.12,5.26112,7.85888
527,0,0,5.07937,20.8573,0,0,0,0.00000000,0.00000000,0,0,-255,0,-255,0,0,0,0,47.6,13.14,6.25464,6.88536
528,0,0,5.08516,20.24,0,0,0,0.00000000,0.00000000,0,0,-255,0,-255,0,0,0,0,47.6,13.14,6.25464,6.88536
529,0,0,5.09079,19.6462,0,0,0,0.00000000,0.00000000,0,0,-255,0,-255,0,0,0,0,54.4,13.18,7.16992,6.01008
