secs,cad,hr,km,kph,nm,watts,alt,lon,lat,headwind,slope,temp,interval,lrbalance,lte,rte,lps,rps,smo2,thb,o2hb,hhb
0,0,108,0,0,0,0,0,0.00000000,0.00000000,0,0,-255,0,-255,0,0,0,0,61.4,12.85,7.8899,4.9601
1,0,108,0,0,0,0,0,0.00000000,0.00000000,0,0,-255,0,-255,0,0,0,0,61.4,12.85,7.8899,4.9601
2,0,109,0.00014551,1.05836,0,9,0,0.00000000,0.00000000,0,0,-255,0,-255,0,0,0,0,61.6,12.82,7.89712,4.92288
3,1,109,0.000597922,2.14286,0,15,0,0.00000000,0.00000000,0,0,-255,0,-255,0,0,0,0,61.6,12.82,7.89712,4.92288
4,1,110,0.00136492,3.28314,0,25,0,0.00000000,0.00000000,0,0,-255,0,-255,0,0,0,0,62.6,12.85,8.0441,4.8059
5,62,111,0.00244356,4.31993,0,33,0,0.00000000,0.00000000,0,0,-255,0,-255,0,0,0,0,62.6,12.85,8.0441,4.8059
6,74,110,0.00382969,5.56581,0,50,0,0.00000000,0.00000000,0,0,-255,0,-255,0,0,0,0,64,12.89,8.2496,4.6404
7,76,110,0.0055674,6.65322,0,49,0,0.00000000,0.00000000,0,0,-255,0,-255,0,0,0,0,64,12.89,8.2496,4.6404
8,78,110,0.0075694,7.55557,0,50,0,0.00000000,0.00000000,0,0,-255,0,-255,0,0,0,0,65.2,12.94,8.43688,4.50312
9,80,110,0.00981301,8.33749,0,49,0,0.00000000,0.00000000,0,0,-255,0,-255,0,0,0,0,65.2,12.94,8.43688,4.50312
10,82,114,0.0122641,9.01521,0,50,0,0.00000000,0.00000000,0,0,-255,0,-255,0,0,0,0,66.3,12.98,8.60574,4.37426
11,82,116,0.0148951,9.57459,0,24,0,0.00000000,0.00000000,0,0,-255,0,-255,0,0,0,0,66.3,12.98,8.60574,4.37426
12,82,117,0.0170489,9.55499,0,11,0,0.00000000,0.00000000,0,0,-255,0,-255,0,0,0,0,67,12.98,8.6966,4.2834
13,82,117,0.0197856,9.8463,0,49,0,0.00000000,0.00000000,0,0,-255,0,-255,0,0,0,0,67,12.98,8.6966,4.2834
14,82,115,0.0226301,10.3629,0,49,0,0.00000000,0.00000000,0,0,-255,0,-255,0,0,0,0,67,12.98,8.6966,4.2834
15,78,115,0.0256086,10.7295,0,25,0,0.00000000,0.00000000,0,0,-255,0,-255,0,0,0,0,67.3,12.97,8.72881,4.24119
16,78,114,0.0286536,10.8423,0,43,0,0.00000000,0.00000000,0,0,-255,0,-255,0,0,0,0,67.1,12.97,8.70287,4.26713
17,75,113,0.0317651,11.2546,0,50,0,0.00000000,0.00000000,0,0,-255,0,-255,0,0,0,0,67.1,12.97,8.70287,4.26713
18,76,113,0.0350039,11.6598,0,50,0,0.00000000,0.00000000,0,0,-255,0,-255,0,0,0,0,66.5,12.96,8.6184,4.3416
19,77,114,0.0383388,12.0435,0,50,0,0.00000000,0.00000000,0,0,-255,0,-255,0,0,0,0,66.5,12.96,8.6184,4.3416
20,78,115,0.0417949,12.3828,0,49,0,0.00000000,0.00000000,0,0,-255,0,-255,0,0,0,0,66,12.95,8.547,4.403
21,78,117,0.0453224,12.696,0,49,0,0.00000000,0.00000000,0,0,-255,0,-255,0,0,0,0,66,12.95,8.547,4.403
22,79,117,0.0489553,12.983,0,49,0,0.00000000,0.00000000,0,0,-255,0,-255,0,0,0,0,65.5,12.95,8.48225,4.46775
23,78,118,0.0526515,13.2529,0,49,0,0.00000000,0.00000000,0,0,-255,0,-255,0,0,0,0,65.5,12.95,8.48225,4.46775
24,79,119,0.0564323,13.5057,0,50,0,0.00000000,0.00000000,0,0,-255,0,-255,0,0,0,0,65,12.95,8.4175,4.5325
25,80,119,0.0594939,13.6952,0,49,0,0.00000000,0.00000000,0,0,-255,0,-255,0,0,0,0,65,12.95,8.4175,4.5325
26,81,119,0.063402,13.9218,0,50,0,0.00000000,0.00000000,0,0,-255,0,-255,0,0,0,0,64.5,12.94,8.3463,4.5937
27,81,120,0.0673434,14.1301,0,50,0,0.00000000,0.00000000,0,0,-255,0,-255,0,0,0,0,64.5,12.94,8.3463,4.5937
28,81,120,0.0713649,14.3232,0,50,0,0.00000000,0.00000000,0,0,-255,0,-255,0,0,0,0,63.9,12.94,8.26866,4.67134
29,81,120,0.0754292,14.5049,0,50,0,0.00000000,0.00000000,0,0,-255,0,-255,0,0,0,0,63.9,12.94,8.26866,4.67134
30,82,120,0.0795466,14.667,0,49,0,0.00000000,0.00000000,0,0,-255,0,-255,0,0,0,0,63.1,12.94,8.16514,4.77486
31,83,120,0.0837039,14.8193,0,49,0,0.00000000,0.00000000,0,0,-255,0,-255,0,0,0,0,63.1,12.94,8.16514,4.77486
32,83,120,0.0879066,14.965,0,50,0,0.00000000,0.00000000,0,0,-255,0,-255,0,0,0,0,62.5,12.93,8.08125,4.84875
33,83,120,0.0921532,15.1,0,50,0,0.00000000,0.00000000,0,0,-255,0,-255,0,0,0,0,62.5,12.93,8.08125,4.84875
34,85,120,0.0964318,15.2322,0,50,0,0.00000000,0.00000000,0,0,-255,0,-255,0,0,0,0,62.4,12.93,8.06832,4.86168
35,86,120,0.100743,15.3557,0,50,0,0.00000000,0.00000000,0,0,-255,0,-255,0,0,0,0,62.4,12.93,8.06832,4.86168
36,86,119,0.105091,15.4711,0,50,0,0.00000000,0.00000000,0,0,-255,0,-255,0,0,0,0,62.6,12.93,8.09418,4.83582
37,86,120,0.109466,15.579,0,50,0,0.00000000,0.00000000,0,0,-255,0,-255,0,0,0,0,62.6,12.93,8.09418,4.83582
38,86,120,0.113003,15.6606,0,50,0,0.00000000,0.00000000,0,0,-255,0,-255,0,0,0,0,62.8,12.93,8.12004,4.80996
39,87,120,0.117428,15.7562,0,50,0,0.00000000,0.00000000,0,0,-255,0,-255,0,0,0,0,62.8,12.93,8.12004,4.80996
40,87,120,0.121895,15.8369,0,49,0,0.00000000,0.00000000,0,0,-255,0,-255,0,0,0,0,63.2,12.93,8.17176,4.75824
41,87,120,0.126361,15.9111,0,49,0,0.00000000,0.00000000,0,0,-255,0,-255,0,0,0,0,63.2,12.93,8.17176,4.75824
42,87,120,0.130864,15.9809,0,49,0,0.00000000,0.00000000,0,0,-255,0,-255,0,0,0,0,63.2,12.93,8.17176,4.75824
43,87,119,0.135376,16.053,0,50,0,0.00000000,0.00000000,0,0,-255,0,-255,0,0,0,0,63.2,12.93,8.17176,4.75824
44,87,120,0.139913,16.1185,0,49,0,0.00000000,0.00000000,0,0,-255,0,-255,0,0,0,0,62.9,12.93,8.13297,4.79703
45,86,120,0.144479,16.182,0,50,0,0.00000000,0.00000000,0,0,-255,0,-255,0,0,0,0,62.9,12.93,8.13297,4.79703
46,87,120,0.149047,16.2442,0,50,0,0.00000000,0.00000000,0,0,-255,0,-255,0,0,0,0,62.7,12.94,8.11338,4.82662
47,87,122,0.153644,16.3025,0,50,0,0.00000000,0.00000000,0,0,-255,0,-255,0,0,0,0,62.7,12.94,8.11338,4.82662
48,87,123,0.158249,16.357,0,50,0,0.00000000,0.00000000,0,0,-255,0,-255,0,0,0,0,62.8,12.93,8.12004,4.80996
49,88,124,0.162861,16.4031,0,49,0,0.00000000,0.00000000,0,0,-255,0,-255,0,0,0,0,62.8,12.93,8.12004,4.80996
50,88,124,0.167498,16.4417,0,49,0,0.00000000,0.00000000,0,0,-255,0,-255,0,0,0,0,63,12.93,8.1459,4.7841
51,88,123,0.171223,16.4709,0,49,0,0.00000000,0.00000000,0,0,-255,0,-255,0,0,0,0,63,12.93,8.1459,4.7841
52,88,123,0.175873,16.5061,0,50,0,0.00000000,0.00000000,0,0,-255,0,-255,0,0,0,0,63.3,12.93,8.18469,4.74531
53,88,124,0.180539,16.5429,0,49,0,0.00000000,0.00000000,0,0,-255,0,-255,0,0,0,0,63.3,12.93,8.18469,4.74531
54,88,124,0.185206,16.5726,0,49,0,0.00000000,0.00000000,0,0,-255,0,-255,0,0,0,0,63.5,12.92,8.2042,4.7158
55,87,123,0.189881,16.6034,0,50,0,0.00000000,0.00000000,0,0,-255,0,-255,0,0,0,0,63.5,12.92,8.2042,4.7158
56,88,122,0.194567,16.6388,0,50,0,0.00000000,0.00000000,0,0,-255,0,-255,0,0,0,0,63.6,12.92,8.21712,4.70288
57,88,122,0.199269,16.6691,0,49,0,0.00000000,0.00000000,0,0,-255,0,-255,0,0,0,0,63.6,12.92,8.21712,4.70288
58,88,120,0.203983,16.6928,0,49,0,0.00000000,0.00000000,0,0,-255,0,-255,0,0,0,0,63.6,12.92,8.21712,4.70288
59,88,120,0.208692,16.7169,0,49,0,0.00000000,0.00000000,0,0,-255,0,-255,0,0,0,0,63.6,12.92,8.21712,4.70288
60,88,120,0.2134,16.7357,0,49,0,0.00000000,0.00000000,0,0,-255,0,-255,0,0,0,0,63.6,12.92,8.21712,4.70288
61,87,122,0.218122,16.7571,0,49,0,0.00000000,0.00000000,0,0,-255,0,-255,0,0,0,0,63.6,12.92,8.21712,4.70288
62,87,122,0.222869,16.7754,0,49,0,0.00000000,0.00000000,0,0,-255,0,-255,0,0,0,0,63.6,12.92,8.21712,4.70288
63,87,123,0.227606,16.799,0,50,0,0.00000000,0.00000000,0,0,-255,0,-255,0,0,0,0,63.9,12.93,8.26227,4.66773
64,87,122,0.231388,16.8175,0,50,0,0.00000000,0.00000000,0,0,-255,0,-255,0,0,0,0,64.3,12.94,8.32042,4.61958
65,87,121,0.236144,16.8357,0,50,0,0.00000000,0.00000000,0,0,-255,0,-255,0,0,0,0,64.3,12.94,8.32042,4.61958
66,85,120,0.240903,16.8564,0,50,0,0.00000000,0.00000000,0,0,-255,0,-255,0,0,0,0,64.7,12.93,8.36571,4.56429
67,87,119,0.245644,16.8729,0,49,0,0.00000000,0.00000000,0,0,-255,0,-255,0,0,0,0,64.7,12.93,8.36571,4.56429
68,86,119,0.250412,16.8868,0,50,0,0.00000000,0.00000000,0,0,-255,0,-255,0,0,0,0,65.1,12.93,8.41743,4.51257
69,87,117,0.255175,16.9006,0,50,0,0.00000000,0.00000000,0,0,-255,0,-255,0,0,0,0,65.1,12.93,8.41743,4.51257
70,88,117,0.25994,16.9154,0,50,0,0.00000000,0.00000000,0,0,-255,0,-255,0,0,0,0,65.6,12.93,8.48208,4.44792
71,88,118,0.264716,16.9311,0,50,0,0.00000000,0.00000000,0,0,-255,0,-255,0,0,0,0,65.6,12.93,8.48208,4.44792
72,89,119,0.269506,16.9459,0,50,0,0.00000000,0.00000000,0,0,-255,0,-255,0,0,0,0,65.8,12.92,8.50136,4.41864
73,88,118,0.274286,16.9597,0,50,0,0.00000000,0.00000000,0,0,-255,0,-255,0,0,0,0,65.8,12.92,8.50136,4.41864
74,89,118,0.27906,16.9726,0,50,0,0.00000000,0.00000000,0,0,-255,0,-255,0,0,0,0,66.1,12.92,8.54012,4.37988
75,89,117,0.283857,16.9829,0,50,0,0.00000000,0.00000000,0,0,-255,0,-255,0,0,0,0,66.1,12.92,8.54012,4.37988
76,89,117,0.288643,16.9934,0,49,0,0.00000000,0.00000000,0,0,-255,0,-255,0,0,0,0,66.2,12.92,8.55304,4.36696
77,89,118,0.292483,16.9946,0,49,0,0.00000000,0.00000000,0,0,-255,0,-255,0,0,0,0,66.2,12.92,8.55304,4.36696
78,89,118,0.297286,16.9961,0,49,0,0.00000000,0.00000000,0,0,-255,0,-255,0,0,0,0,66.2,12.92,8.55304,4.36696
79,89,118,0.302086,17.0011,0,49,0,0.00000000,0.00000000,0,0,-255,0,-255,0,0,0,0,66.2,12.92,8.55304,4.36696
80,90,119,0.306868,17.004,0,49,0,0.00000000,0.00000000,0,0,-255,0,-255,0,0,0,0,66.2,12.92,8.55304,4.36696
81,90,120,0.311678,17.0096,0,50,0,0.00000000,0.00000000,0,0,-255,0,-255,0,0,0,0,66.1,12.92,8.54012,4.37988
82,90,121,0.316479,17.0147,0,49,0,0.00000000,0.00000000,0,0,-255,0,-255,0,0,0,0,65.8,12.93,8.50794,4.42206
83,90,120,0.321271,17.0178,0,50,0,0.00000000,0.00000000,0,0,-255,0,-255,0,0,0,0,65.8,12.93,8.50794,4.42206
84,89,120,0.326069,17.0242,0,49,0,0.00000000,0.00000000,0,0,-255,0,-255,0,0,0,0,65.4,12.93,8.45622,4.47378
85,89,119,0.330869,17.0239,0,49,0,0.00000000,0.00000000,0,0,-255,0,-255,0,0,0,0,65.4,12.93,8.45622,4.47378
86,88,119,0.335683,17.0244,0,50,0,0.00000000,0.00000000,0,0,-255,0,-255,0,0,0,0,65.2,12.93,8.43036,4.49964
87,89,119,0.340478,17.0315,0,50,0,0.00000000,0.00000000,0,0,-255,0,-255,0,0,0,0,65.2,12.93,8.43036,4.49964
88,89,119,0.34529,17.0344,0,50,0,0.00000000,0.00000000,0,0,-255,0,-255,0,0,0,0,65,12.94,8.411,4.529
89,89,120,0.350088,17.038,0,49,0,0.00000000,0.00000000,0,0,-255,0,-255,0,0,0,0,65,12.94,8.411,4.529
90,89,120,0.353935,17.037,0,49,0,0.00000000,0.00000000,0,0,-255,0,-255,0,0,0,0,64.8,12.94,8.38512,4.55488
91,88,120,0.358742,17.0377,0,49,0,0.00000000,0.00000000,0,0,-255,0,-255,0,0,0,0,64.8,12.94,8.38512,4.55488
92,89,119,0.363551,17.0411,0,50,0,0.00000000,0.00000000,0,0,-255,0,-255,0,0,0,0,65,12.94,8.411,4.529
93,89,119,0.368355,17.0489,0,50,0,0.00000000,0.00000000,0,0,-255,0,-255,0,0,0,0,65,12.94,8.411,4.529
94,89,118,0.373165,17.0562,0,50,0,0.00000000,0.00000000,0,0,-255,0,-255,0,0,0,0,65.3,12.95,8.45635,4.49365
95,89,118,0.377982,17.0594,0,50,0,0.00000000,0.00000000,0,0,-255,0,-255,0,0,0,0,65.3,12.95,8.45635,4.49365
96,88,117,0.382804,17.0623,0,50,0,0.00000000,0.00000000,0,0,-255,0,-255,0,0,0,0,65.6,12.95,8.4952,4.4548
97,89,116,0.387616,17.0659,0,49,0,0.00000000,0.00000000,0,0,-255,0,-255,0,0,0,0,65.6,12.95,8.4952,4.4548
98,89,116,0.392419,17.0639,0,50,0,0.00000000,0.00000000,0,0,-255,0,-255,0,0,0,0,66,12.95,8.547,4.403
99,89,116,0.397246,17.0703,0,50,0,0.00000000,0.00000000,0,0,-255,0,-255,0,0,0,0,66,12.95,8.547,4.403
100,89,119,0.402066,17.0707,0,50,0,0.00000000,0.00000000,0,0,-255,0,-255,0,0,0,0,66.6,12.95,8.6247,4.3253
101,88,119,0.406872,17.0701,0,49,0,0.00000000,0.00000000,0,0,-255,0,-255,0,0,0,0,66.6,12.95,8.6247,4.3253
102,89,120,0.411691,17.0706,0,49,0,0.00000000,0.00000000,0,0,-255,0,-255,0,0,0,0,67,12.95,8.6765,4.2735
103,89,120,0.415546,17.068,0,49,0,0.00000000,0.00000000,0,0,-255,0,-255,0,0,0,0,67,12.95,8.6765,4.2735
104,88,119,0.420359,17.0696,0,50,0,0.00000000,0.00000000,0,0,-255,0,-255,0,0,0,0,67.1,12.94,8.68274,4.25726
105,89,116,0.425164,17.0737,0,50,0,0.00000000,0.00000000,0,0,-255,0,-255,0,0,0,0,67.1,12.94,8.68274,4.25726
106,88,115,0.429981,17.0767,0,49,0,0.00000000,0.00000000,0,0,-255,0,-255,0,0,0,0,67.1,12.94,8.68274,4.25726
107,88,114,0.434806,17.0739,0,50,0,0.00000000,0.00000000,0,0,-255,0,-255,0,0,0,0,67,12.93,8.6631,4.2669
108,89,114,0.439632,17.0723,0,50,0,0.00000000,0.00000000,0,0,-255,0,-255,0,0,0,0,66.8,12.93,8.63724,4.29276
109,89,116,0.444445,17.0781,0,50,0,0.00000000,0.00000000,0,0,-255,0,-255,0,0,0,0,66.8,12.93,8.63724,4.29276
110,89,116,0.449262,17.0799,0,50,0,0.00000000,0.00000000,0,0,-255,0,-255,0,0,0,0,66.4,12.92,8.57888,4.34112
111,88,117,0.45408,17.0852,0,50,0,0.00000000,0.00000000,0,0,-255,0,-255,0,0,0,0,66.4,12.92,8.57888,4.34112
112,90,116,0.458896,17.0893,0,49,0,0.00000000,0.00000000,0,0,-255,0,-255,0,0,0,0,66.1,12.92,8.54012,4.37988
113,90,116,0.46373,17.0849,0,49,0,0.00000000,0.00000000,0,0,-255,0,-255,0,0,0,0,66.1,12.92,8.54012,4.37988
114,90,115,0.468542,17.0807,0,49,0,0.00000000,0.00000000,0,0,-255,0,-255,0,0,0,0,65.7,12.91,8.48187,4.42813
115,90,114,0.473351,17.0851,0,50,0,0.00000000,0.00000000,0,0,-255,0,-255,0,0,0,0,65.7,12.91,8.48187,4.42813
116,90,114,0.477209,17.0892,0,50,0,0.00000000,0.00000000,0,0,-255,0,-255,0,0,0,0,65.2,12.92,8.42384,4.49616
117,89,114,0.482037,17.0912,0,49,0,0.00000000,0.00000000,0,0,-255,0,-255,0,0,0,0,65.2,12.92,8.42384,4.49616
118,89,115,0.486861,17.0922,0,49,0,0.00000000,0.00000000,0,0,-255,0,-255,0,0,0,0,64.7,12.92,8.35924,4.56076
119,89,115,0.49169,17.0931,0,49,0,0.00000000,0.00000000,0,0,-255,0,-255,0,0,0,0,64.7,12.92,8.35924,4.56076
120,90,115,0.496509,17.0884,0,49,0,0.00000000,0.00000000,0,0,-255,0,-255,0,0,0,0,64.2,12.92,8.29464,4.62536
121,88,115,0.50133,17.0869,0,50,0,0.00000000,0.00000000,0,0,-255,0,-255,0,0,0,0,64.2,12.92,8.29464,4.62536
122,88,115,0.506148,17.0909,0,49,0,0.00000000,0.00000000,0,0,-255,0,-255,0,0,0,0,63.5,12.92,8.2042,4.7158
123,89,115,0.510973,17.0947,0,50,0,0.00000000,0.00000000,0,0,-255,0,-255,0,0,0,0,63.5,12.92,8.2042,4.7158
124,89,115,0.515786,17.0982,0,49,0,0.00000000,0.00000000,0,0,-255,0,-255,0,0,0,0,63,12.92,8.1396,4.7804
125,89,115,0.520613,17.0997,0,50,0,0.00000000,0.00000000,0,0,-255,0,-255,0,0,0,0,63,12.92,8.1396,4.7804
126,87,114,0.525442,17.1038,0,50,0,0.00000000,0.00000000,0,0,-255,0,-255,0,0,0,0,62.9,12.93,8.13297,4.79703
127,87,113,0.530256,17.1003,0,50,0,0.00000000,0.00000000,0,0,-255,0,-255,0,0,0,0,62.9,12.93,8.13297,4.79703
128,87,113,0.535085,17.0971,0,50,0,0.00000000,0.00000000,0,0,-255,0,-255,0,0,0,0,63,12.94,8.1522,4.7878
129,89,112,0.538952,17.094,0,49,0,0.00000000,0.00000000,0,0,-255,0,-255,0,0,0,0,63,12.94,8.1522,4.7878
130,89,113,0.543762,17.0921,0,50,0,0.00000000,0.00000000,0,0,-255,0,-255,0,0,0,0,62.8,12.94,8.12632,4.81368
131,89,114,0.548587,17.0967,0,50,0,0.00000000,0.00000000,0,0,-255,0,-255,0,0,0,0,62.8,12.94,8.12632,4.81368
132,89,114,0.553415,17.101,0,50,0,0.00000000,0.00000000,0,0,-255,0,-255,0,0,0,0,62.8,12.94,8.12632,4.81368
133,88,115,0.558232,17.1041,0,49,0,0.00000000,0.00000000,0,0,-255,0,-255,0,0,0,0,62.9,12.95,8.14555,4.80445
134,89,114,0.563059,17.1016,0,50,0,0.00000000,0.00000000,0,0,-255,0,-255,0,0,0,0,62.9,12.95,8.14555,4.80445
135,89,114,0.567883,17.1056,0,50,0,0.00000000,0.00000000,0,0,-255,0,-255,0,0,0,0,62.9,12.96,8.15184,4.80816
136,89,112,0.572714,17.1065,0,49,0,0.00000000,0.00000000,0,0,-255,0,-255,0,0,0,0,62.5,12.96,8.1,4.86
137,89,111,0.577548,17.1065,0,49,0,0.00000000,0.00000000,0,0,-255,0,-255,0,0,0,0,62.5,12.96,8.1,4.86
138,88,111,0.582358,17.101,0,49,0,0.00000000,0.00000000,0,0,-255,0,-255,0,0,0,0,61.9,12.96,8.02224,4.93776
139,88,110,0.587203,17.1024,0,50,0,0.00000000,0.00000000,0,0,-255,0,-255,0,0,0,0,61.9,12.96,8.02224,4.93776
140,88,112,0.592009,17.1063,0,50,0,0.00000000,0.00000000,0,0,-255,0,-255,0,0,0,0,61.5,12.96,7.9704,4.9896
141,88,113,0.596839,17.1063,0,50,0,0.00000000,0.00000000,0,0,-255,0,-255,0,0,0,0,61.5,12.96,7.9704,4.9896
142,88,113,0.600704,17.1065,0,49,0,0.00000000,0.00000000,0,0,-255,0,-255,0,0,0,0,61.3,12.95,7.93835,5.01165
143,88,115,0.605522,17.101,0,49,0,0.00000000,0.00000000,0,0,-255,0,-255,0,0,0,0,61.3,12.95,7.93835,5.01165
144,89,115,0.610348,17.0958,0,49,0,0.00000000,0.00000000,0,0,-255,0,-255,0,0,0,0,61,12.95,7.8995,5.0505
145,90,114,0.615188,17.0919,0,50,0,0.00000000,0.00000000,0,0,-255,0,-255,0,0,0,0,61,12.95,7.8995,5.0505
146,90,112,0.620002,17.0929,0,50,0,0.00000000,0.00000000,0,0,-255,0,-255,0,0,0,0,60.9,12.94,7.88046,5.05954
147,90,111,0.624817,17.0891,0,49,0,0.00000000,0.00000000,0,0,-255,0,-255,0,0,0,0,60.9,12.94,7.88046,5.05954
148,90,110,0.629646,17.0866,0,49,0,0.00000000,0.00000000,0,0,-255,0,-255,0,0,0,0,60.9,12.93,7.87437,5.05563
149,90,110,0.634452,17.0851,0,50,0,0.00000000,0.00000000,0,0,-255,0,-255,0,0,0,0,60.9,12.93,7.87437,5.05563
150,89,110,0.639281,17.0855,0,49,0,0.00000000,0.00000000,0,0,-255,0,-255,0,0,0,0,60.9,12.92,7.86828,5.05172
151,88,110,0.644102,17.0896,0,50,0,0.00000000,0.00000000,0,0,-255,0,-255,0,0,0,0,60.9,12.92,7.86828,5.05172
152,88,111,0.648924,17.0897,0,49,0,0.00000000,0.00000000,0,0,-255,0,-255,0,0,0,0,61,12.92,7.8812,5.0388
153,90,111,0.653736,17.0888,0,49,0,0.00000000,0.00000000,0,0,-255,0,-255,0,0,0,0,61,12.92,7.8812,5.0388
154,90,112,0.658559,17.0844,0,49,0,0.00000000,0.00000000,0,0,-255,0,-255,0,0,0,0,61.4,12.92,7.93288,4.98712
155,90,113,0.662425,17.0811,0,49,0,0.00000000,0.00000000,0,0,-255,0,-255,0,0,0,0,61.4,12.92,7.93288,4.98712
156,90,113,0.667232,17.0781,0,50,0,0.00000000,0.00000000,0,0,-255,0,-255,0,0,0,0,62,12.93,8.0166,4.9134
157,90,113,0.672051,17.0836,0,50,0,0.00000000,0.00000000,0,0,-255,0,-255,0,0,0,0,62,12.93,8.0166,4.9134
158,91,113,0.676892,17.0888,0,50,0,0.00000000,0.00000000,0,0,-255,0,-255,0,0,0,0,62,12.93,8.0166,4.9134
159,91,112,0.681709,17.0862,0,50,0,0.00000000,0.00000000,0,0,-255,0,-255,0,0,0,0,62.5,12.92,8.075,4.845
160,87,111,0.686527,17.0828,0,49,0,0.00000000,0.00000000,0,0,-255,0,-255,0,0,0,0,62.5,12.92,8.075,4.845
161,90,110,0.691334,17.0788,0,49,0,0.00000000,0.00000000,0,0,-255,0,-255,0,0,0,0,62.8,12.93,8.12004,4.80996
162,90,111,0.696159,17.0834,0,50,0,0.00000000,0.00000000,0,0,-255,0,-255,0,0,0,0,62.9,12.92,8.12668,4.79332
163,90,110,0.700979,17.0876,0,49,0,0.00000000,0.00000000,0,0,-255,0,-255,0,0,0,0,62.9,12.92,8.12668,4.79332
164,90,111,0.705802,17.0832,0,49,0,0.00000000,0.00000000,0,0,-255,0,-255,0,0,0,0,62.9,12.92,8.12668,4.79332
165,90,113,0.710629,17.0857,0,50,0,0.00000000,0.00000000,0,0,-255,0,-255,0,0,0,0,62.9,12.92,8.12668,4.79332
166,89,113,0.715437,17.0907,0,50,0,0.00000000,0.00000000,0,0,-255,0,-255,0,0,0,0,62.8,12.91,8.10748,4.80252
167,89,114,0.72026,17.0917,0,50,0,0.00000000,0.00000000,0,0,-255,0,-255,0,0,0,0,62.8,12.91,8.10748,4.80252
168,90,114,0.724112,17.0955,0,50,0,0.00000000,0.00000000,0,0,-255,0,-255,0,0,0,0,62.8,12.91,8.10748,4.80252
169,91,115,0.728936,17.0915,0,49,0,0.00000000,0.00000000,0,0,-255,0,-255,0,0,0,0,62.8,12.91,8.10748,4.80252
170,91,114,0.733763,17.0916,0,50,0,0.00000000,0.00000000,0,0,-255,0,-255,0,0,0,0,62.6,12.9,8.0754,4.8246
171,90,114,0.738583,17.0953,0,49,0,0.00000000,0.00000000,0,0,-255,0,-255,0,0,0,0,62.6,12.9,8.0754,4.8246
172,90,113,0.743414,17.0905,0,49,0,0.00000000,0.00000000,0,0,-255,0,-255,0,0,0,0,62.1,12.89,8.00469,4.88531
173,91,113,0.748236,17.0878,0,49,0,0.00000000,0.00000000,0,0,-255,0,-255,0,0,0,0,62.1,12.89,8.00469,4.88531
174,90,114,0.753046,17.0834,0,49,0,0.00000000,0.00000000,0,0,-255,0,-255,0,0,0,0,61.6,12.9,7.9464,4.9536
175,90,115,0.757873,17.084,0,50,0,0.00000000,0.00000000,0,0,-255,0,-255,0,0,0,0,61.6,12.9,7.9464,4.9536
176,90,116,0.762683,17.0892,0,50,0,0.00000000,0.00000000,0,0,-255,0,-255,0,0,0,0,61.6,12.91,7.95256,4.95744
177,90,117,0.767509,17.0921,0,50,0,0.00000000,0.00000000,0,0,-255,0,-255,0,0,0,0,61.6,12.91,7.95256,4.95744
178,89,117,0.772343,17.0949,0,50,0,0.00000000,0.00000000,0,0,-255,0,-255,0,0,0,0,61.7,12.92,7.97164,4.94836
179,88,117,0.777147,17.0928,0,49,0,0.00000000,0.00000000,0,0,-255,0,-255,0,0,0,0,61.7,12.92,7.97164,4.94836
180,87,117,0.781969,17.0965,0,50,0,0.00000000,0.00000000,0,0,-255,0,-255,0,0,0,0,61.6,12.92,7.95872,4.96128
181,87,116,0.785837,17.0971,0,49,0,0.00000000,0.00000000,0,0,-255,0,-255,0,0,0,0,61.6,12.92,7.95872,4.96128
182,87,116,0.790651,17.095,0,50,0,0.00000000,0.00000000,0,0,-255,0,-255,0,0,0,0,61.8,12.93,7.99074,4.93926
183,87,115,0.795481,17.0985,0,49,0,0.00000000,0.00000000,0,0,-255,0,-255,0,0,0,0,61.8,12.93,7.99074,4.93926
184,86,115,0.800296,17.1018,0,50,0,0.00000000,0.00000000,0,0,-255,0,-255,0,0,0,0,62,12.93,8.0166,4.9134
185,88,115,0.805134,17.103,0,49,0,0.00000000,0.00000000,0,0,-255,0,-255,0,0,0,0,62,12.93,8.0166,4.9134
186,88,115,0.809961,17.0977,0,49,0,0.00000000,0.00000000,0,0,-255,0,-255,0,0,0,0,62,12.93,8.0166,4.9134
187,88,115,0.814785,17.1011,0,50,0,0.00000000,0.00000000,0,0,-255,0,-255,0,0,0,0,62,12.93,8.0166,4.9134
188,88,116,0.819597,17.0968,0,49,0,0.00000000,0.00000000,0,0,-255,0,-255,0,0,0,0,62.3,12.94,8.06162,4.87838
189,88,116,0.824425,17.0956,0,49,0,0.00000000,0.00000000,0,0,-255,0,-255,0,0,0,0,62.3,12.94,8.06162,4.87838
190,88,116,0.82924,17.0907,0,49,0,0.00000000,0.00000000,0,0,-255,0,-255,0,0,0,0,62.8,12.94,8.12632,4.81368
191,88,114,0.834083,17.0927,0,50,0,0.00000000,0.00000000,0,0,-255,0,-255,0,0,0,0,62.8,12.94,8.12632,4.81368
192,87,114,0.838893,17.0955,0,50,0,0.00000000,0.00000000,0,0,-255,0,-255,0,0,0,0,63.3,12.94,8.19102,4.74898
193,87,113,0.843717,17.0999,0,50,0,0.00000000,0.00000000,0,0,-255,0,-255,0,0,0,0,63.3,12.94,8.19102,4.74898
194,86,112,0.847578,17.1004,0,49,0,0.00000000,0.00000000,0,0,-255,0,-255,0,0,0,0,63.6,12.94,8.22984,4.71016
195,88,112,0.852393,17.1017,0,50,0,0.00000000,0.00000000,0,0,-255,0,-255,0,0,0,0,63.6,12.94,8.22984,4.71016
196,89,113,0.857214,17.1047,0,49,0,0.00000000,0.00000000,0,0,-255,0,-255,0,0,0,0,63.7,12.94,8.24278,4.69722
197,90,113,0.862044,17.1058,0,50,0,0.00000000,0.00000000,0,0,-255,0,-255,0,0,0,0,63.7,12.94,8.24278,4.69722
198,90,113,0.866877,17.1077,0,50,0,0.00000000,0.00000000,0,0,-255,0,-255,0,0,0,0,63.6,12.93,8.22348,4.70652
199,90,114,0.871699,17.1095,0,50,0,0.00000000,0.00000000,0,0,-255,0,-255,0,0,0,0,63.6,12.93,8.22348,4.70652
200,89,114,0.876535,17.1083,0,49,0,0.00000000,0.00000000,0,0,-255,0,-255,0,0,0,0,63.8,12.93,8.24934,4.68066
201,88,114,0.881352,17.1045,0,49,0,0.00000000,0.00000000,0,0,-255,0,-255,0,0,0,0,63.8,12.93,8.24934,4.68066
202,88,113,0.886179,17.0991,0,49,0,0.00000000,0.00000000,0,0,-255,0,-255,0,0,0,0,63.8,12.93,8.24934,4.68066
203,88,113,0.891007,17.0988,0,50,0,0.00000000,0.00000000,0,0,-255,0,-255,0,0,0,0,63.8,12.93,8.24934,4.68066
204,88,112,0.895819,17.0956,0,50,0,0.00000000,0.00000000,0,0,-255,0,-255,0,0,0,0,63.8,12.93,8.24934,4.68066
205,87,112,0.900658,17.1,0,50,0,0.00000000,0.00000000,0,0,-255,0,-255,0,0,0,0,63.7,12.93,8.23641,4.69359
206,88,112,0.905472,17.1023,0,50,0,0.00000000,0.00000000,0,0,-255,0,-255,0,0,0,0,63.8,12.93,8.24934,4.68066
207,88,112,0.909329,17.1026,0,49,0,0.00000000,0.00000000,0,0,-255,0,-255,0,0,0,0,63.8,12.93,8.24934,4.68066
208,88,112,0.914167,17.1002,0,50,0,0.00000000,0.00000000,0,0,-255,0,-255,0,0,0,0,63.7,12.94,8.24278,4.69722
209,88,110,0.918978,17.1033,0,49,0,0.00000000,0.00000000,0,0,-255,0,-255,0,0,0,0,63.7,12.94,8.24278,4.69722
210,87,110,0.923817,17.098,0,49,0,0.00000000,0.00000000,0,0,-255,0,-255,0,0,0,0,63.7,12.94,8.24278,4.69722
211,88,110,0.928634,17.0996,0,50,0,0.00000000,0.00000000,0,0,-255,0,-255,0,0,0,0,63.7,12.94,8.24278,4.69722
212,88,110,0.933455,17.0981,0,50,0,0.00000000,0.00000000,0,0,-255,0,-255,0,0,0,0,63.8,12.95,8.2621,4.6879
213,88,109,0.938273,17.0958,0,49,0,0.00000000,0.00000000,0,0,-255,0,-255,0,0,0,0,63.8,12.95,8.2621,4.6879
214,88,110,0.943104,17.091,0,49,0,0.00000000,0.00000000,0,0,-255,0,-255,0,0,0,0,64.1,12.95,8.30095,4.64905
215,88,110,0.947926,17.0948,0,50,0,0.00000000,0.00000000,0,0,-255,0,-255,0,0,0,0,64.1,12.95,8.30095,4.64905
216,88,109,0.952742,17.0927,0,49,0,0.00000000,0.00000000,0,0,-255,0,-255,0,0,0,0,64.2,12.95,8.3139,4.6361
217,89,109,0.957576,17.088,0,49,0,0.00000000,0.00000000,0,0,-255,0,-255,0,0,0,0,64.2,12.95,8.3139,4.6361
218,89,109,0.962395,17.0883,0,50,0,0.00000000,0.00000000,0,0,-255,0,-255,0,0,0,0,64.3,12.96,8.33328,4.62672
219,89,109,0.967222,17.0885,0,49,0,0.00000000,0.00000000,0,0,-255,0,-255,0,0,0,0,64.3,12.96,8.33328,4.62672
220,88,109,0.971078,17.0849,0,49,0,0.00000000,0.00000000,0,0,-255,0,-255,0,0,0,0,64.1,12.95,8.30095,4.64905
221,89,109,0.975887,17.0808,0,49,0,0.00000000,0.00000000,0,0,-255,0,-255,0,0,0,0,64.1,12.95,8.30095,4.64905
222,89,110,0.980699,17.0834,0,50,0,0.00000000,0.00000000,0,0,-255,0,-255,0,0,0,0,64.1,12.95,8.30095,4.64905
223,89,110,0.985518,17.0867,0,50,0,0.00000000,0.00000000,0,0,-255,0,-255,0,0,0,0,63.7,12.95,8.24915,4.70085
224,90,109,0.990351,17.0917,0,50,0,0.00000000,0.00000000,0,0,-255,0,-255,0,0,0,0,63.1,12.95,8.17145,4.77855
225,89,109,0.995178,17.0935,0,49,0,0.00000000,0.00000000,0,0,-255,0,-255,0,0,0,0,63.1,12.95,8.17145,4.77855
226,89,108,0.999991,17.0925,0,49,0,0.00000000,0.00000000,0,0,-255,0,-255,0,0,0,0,62.6,12.95,8.1067,4.8433
227,89,108,1.00482,17.0878,0,49,0,0.00000000,0.00000000,0,0,-255,0,-255,0,0,0,0,62.6,12.95,8.1067,4.8433
228,88,108,1.00963,17.0835,0,49,0,0.00000000,0.00000000,0,0,-255,0,-255,0,0,0,0,62.1,12.94,8.03574,4.90426
229,88,109,1.01446,17.0841,0,50,0,0.00000000,0.00000000,0,0,-255,0,-255,0,0,0,0,62.1,12.94,8.03574,4.90426
230,87,108,1.01929,17.0836,0,50,0,0.00000000,0.00000000,0,0,-255,0,-255,0,0,0,0,61.9,12.94,8.00986,4.93014
231,88,110,1.02408,17.0859,0,49,0,0.00000000,0.00000000,0,0,-255,0,-255,0,0,0,0,61.9,12.94,8.00986,4.93014
232,88,110,1.02891,17.0817,0,49,0,0.00000000,0.00000000,0,0,-255,0,-255,0,0,0,0,61.9,12.94,8.00986,4.93014
233,88,111,1.03277,17.085,0,50,0,0.00000000,0.00000000,0,0,-255,0,-255,0,0,0,0,61.9,12.94,8.00986,4.93014
234,88,111,1.0376,17.0901,0,50,0,0.00000000,0.00000000,0,0,-255,0,-255,0,0,0,0,62,12.94,8.0228,4.9172
235,88,110,1.04241,17.0901,0,49,0,0.00000000,0.00000000,0,0,-255,0,-255,0,0,0,0,62,12.94,8.0228,4.9172
236,89,110,1.04723,17.0856,0,49,0,0.00000000,0.00000000,0,0,-255,0,-255,0,0,0,0,62,12.94,8.0228,4.9172
237,89,110,1.05204,17.0842,0,50,0,0.00000000,0.00000000,0,0,-255,0,-255,0,0,0,0,62,12.94,8.0228,4.9172
238,89,110,1.05688,17.0846,0,49,0,0.00000000,0.00000000,0,0,-255,0,-255,0,0,0,0,62.2,12.94,8.04868,4.89132
239,88,110,1.06169,17.0805,0,49,0,0.00000000,0.00000000,0,0,-255,0,-255,0,0,0,0,62.2,12.94,8.04868,4.89132
240,87,110,1.06651,17.0795,0,50,0,0.00000000,0.00000000,0,0,-255,0,-255,0,0,0,0,62.2,12.94,8.04868,4.89132
241,88,110,1.07132,17.0848,0,50,0,0.00000000,0.00000000,0,0,-255,0,-255,0,0,0,0,62.2,12.94,8.04868,4.89132
242,88,110,1.07614,17.0852,0,49,0,0.00000000,0.00000000,0,0,-255,0,-255,0,0,0,0,62.2,12.94,8.04868,4.89132
243,89,109,1.08098,17.081,0,49,0,0.00000000,0.00000000,0,0,-255,0,-255,0,0,0,0,62.2,12.94,8.04868,4.89132
244,90,109,1.08578,17.0799,0,50,0,0.00000000,0.00000000,0,0,-255,0,-255,0,0,0,0,62.2,12.93,8.04246,4.88754
245,90,108,1.09059,17.0853,0,50,0,0.00000000,0.00000000,0,0,-255,0,-255,0,0,0,0,62.2,12.93,8.04246,4.88754
246,89,109,1.09446,17.0884,0,49,0,0.00000000,0.00000000,0,0,-255,0,-255,0,0,0,0,62.1,12.93,8.02953,4.90047
247,89,109,1.09929,17.084,0,49,0,0.00000000,0.00000000,0,0,-255,0,-255,0,0,0,0,62.1,12.93,8.02953,4.90047
248,89,109,1.1041,17.0799,0,49,0,0.00000000,0.00000000,0,0,-255,0,-255,0,0,0,0,61.7,12.92,7.97164,4.94836
249,89,109,1.10891,17.0826,0,50,0,0.00000000,0.00000000,0,0,-255,0,-255,0,0,0,0,61.7,12.92,7.97164,4.94836
250,91,109,1.11374,17.0795,0,49,0,0.00000000,0.00000000,0,0,-255,0,-255,0,0,0,0,61.7,12.92,7.97164,4.94836
251,91,110,1.11856,17.0803,0,50,0,0.00000000,0.00000000,0,0,-255,0,-255,0,0,0,0,61.5,12.92,7.9458,4.9742
252,90,111,1.12337,17.0809,0,49,0,0.00000000,0.00000000,0,0,-255,0,-255,0,0,0,0,61.3,12.92,7.91996,5.00004
253,90,111,1.12819,17.077,0,49,0,0.00000000,0.00000000,0,0,-255,0,-255,0,0,0,0,61.3,12.92,7.91996,5.00004
254,90,110,1.13301,17.0733,0,49,0,0.00000000,0.00000000,0,0,-255,0,-255,0,0,0,0,61,12.92,7.8812,5.0388
255,90,110,1.13783,17.0699,0,49,0,0.00000000,0.00000000,0,0,-255,0,-255,0,0,0,0,61,12.92,7.8812,5.0388
256,89,109,1.14265,17.0695,0,50,0,0.00000000,0.00000000,0,0,-255,0,-255,0,0,0,0,60.8,12.93,7.86144,5.06856
257,89,108,1.14746,17.0745,0,49,0,0.00000000,0.00000000,0,0,-255,0,-255,0,0,0,0,60.8,12.93,7.86144,5.06856
258,89,108,1.15227,17.0738,0,50,0,0.00000000,0.00000000,0,0,-255,0,-255,0,0,0,0,60.9,12.93,7.87437,5.05563
259,89,109,1.15613,17.0785,0,50,0,0.00000000,0.00000000,0,0,-255,0,-255,0,0,0,0,60.9,12.93,7.87437,5.05563
260,89,109,1.16094,17.0774,0,49,0,0.00000000,0.00000000,0,0,-255,0,-255,0,0,0,0,61,12.93,7.8873,5.0427
261,88,110,1.16577,17.0774,0,49,0,0.00000000,0.00000000,0,0,-255,0,-255,0,0,0,0,61,12.93,7.8873,5.0427
262,88,110,1.17059,17.0737,0,49,0,0.00000000,0.00000000,0,0,-255,0,-255,0,0,0,0,61.3,12.93,7.92609,5.00391
263,88,110,1.17539,17.0749,0,50,0,0.00000000,0.00000000,0,0,-255,0,-255,0,0,0,0,61.3,12.93,7.92609,5.00391
264,88,110,1.18022,17.0806,0,50,0,0.00000000,0.00000000,0,0,-255,0,-255,0,0,0,0,61.8,12.93,7.99074,4.93926
265,88,109,1.18505,17.0831,0,49,0,0.00000000,0.00000000,0,0,-255,0,-255,0,0,0,0,61.8,12.93,7.99074,4.93926
266,88,107,1.18985,17.0819,0,50,0,0.00000000,0.00000000,0,0,-255,0,-255,0,0,0,0,62.4,12.94,8.07456,4.86544
267,88,106,1.19468,17.0834,0,50,0,0.00000000,0.00000000,0,0,-255,0,-255,0,0,0,0,62.4,12.94,8.07456,4.86544
268,89,107,1.19949,17.0802,0,49,0,0.00000000,0.00000000,0,0,-255,0,-255,0,0,0,0,62.6,12.94,8.10044,4.83956
269,90,107,1.20432,17.0811,0,50,0,0.00000000,0.00000000,0,0,-255,0,-255,0,0,0,0,62.6,12.94,8.10044,4.83956
270,90,107,1.20913,17.0863,0,50,0,0.00000000,0.00000000,0,0,-255,0,-255,0,0,0,0,62.7,12.94,8.11338,4.82662
271,89,108,1.21396,17.0913,0,50,0,0.00000000,0.00000000,0,0,-255,0,-255,0,0,0,0,62.7,12.94,8.11338,4.82662
272,89,108,1.21782,17.0951,0,50,0,0.00000000,0.00000000,0,0,-255,0,-255,0,0,0,0,62.5,12.94,8.0875,4.8525
273,90,109,1.22264,17.0995,0,50,0,0.00000000,0.00000000,0,0,-255,0,-255,0,0,0,0,62.5,12.94,8.0875,4.8525
274,90,109,1.22747,17.1008,0,49,0,0.00000000,0.00000000,0,0,-255,0,-255,0,0,0,0,62.3,12.94,8.06162,4.87838
275,90,109,1.23228,17.0956,0,49,0,0.00000000,0.00000000,0,0,-255,0,-255,0,0,0,0,62.3,12.94,8.06162,4.87838
276,91,109,1.2371,17.0937,0,50,0,0.00000000,0.00000000,0,0,-255,0,-255,0,0,0,0,62.3,12.94,8.06162,4.87838
277,91,108,1.24192,17.0982,0,50,0,0.00000000,0.00000000,0,0,-255,0,-255,0,0,0,0,61.9,12.94,8.00986,4.93014
278,92,107,1.24677,17.0995,0,49,0,0.00000000,0.00000000,0,0,-255,0,-255,0,0,0,0,61.5,12.95,7.96425,4.98575
279,91,106,1.25159,17.0945,0,49,0,0.00000000,0.00000000,0,0,-255,0,-255,0,0,0,0,61.5,12.95,7.96425,4.98575
280,91,105,1.25641,17.0897,0,49,0,0.00000000,0.00000000,0,0,-255,0,-255,0,0,0,0,61.1,12.95,7.91245,5.03755
281,91,105,1.26122,17.0852,0,49,0,0.00000000,0.00000000,0,0,-255,0,-255,0,0,0,0,61.1,12.95,7.91245,5.03755
282,90,107,1.26604,17.0829,0,49,0,0.00000000,0.00000000,0,0,-255,0,-255,0,0,0,0,61,12.95,7.8995,5.0505
283,91,108,1.27086,17.0789,0,49,0,0.00000000,0.00000000,0,0,-255,0,-255,0,0,0,0,61,12.95,7.8995,5.0505
284,92,109,1.27568,17.0769,0,49,0,0.00000000,0.00000000,0,0,-255,0,-255,0,0,0,0,61.2,12.95,7.9254,5.0246
285,92,109,1.27953,17.0786,0,50,0,0.00000000,0.00000000,0,0,-255,0,-255,0,0,0,0,61.2,12.95,7.9254,5.0246
286,91,109,1.28436,17.0757,0,49,0,0.00000000,0.00000000,0,0,-255,0,-255,0,0,0,0,61.6,12.95,7.9772,4.9728
287,91,109,1.28917,16.9934,0,37,0,0.00000000,0.00000000,0,0,-255,0,-255,0,0,0,0,61.6,12.95,7.9772,4.9728
288,91,110,1.29393,16.9138,0,49,0,0.00000000,0.00000000,0,0,-255,0,-255,0,0,0,0,62.2,12.95,8.0549,4.8951
289,87,110,1.2987,16.9232,0,50,0,0.00000000,0.00000000,0,0,-255,0,-255,0,0,0,0,62.2,12.95,8.0549,4.8951
290,87,110,1.30349,16.9385,0,50,0,0.00000000,0.00000000,0,0,-255,0,-255,0,0,0,0,62.4,12.94,8.07456,4.86544
291,86,110,1.30826,16.9499,0,49,0,0.00000000,0.00000000,0,0,-255,0,-255,0,0,0,0,62.4,12.94,8.07456,4.86544
292,86,111,1.31304,16.9597,0,49,0,0.00000000,0.00000000,0,0,-255,0,-255,0,0,0,0,62,12.94,8.0228,4.9172
293,90,111,1.31785,16.9633,0,49,0,0.00000000,0.00000000,0,0,-255,0,-255,0,0,0,0,62,12.94,8.0228,4.9172
294,89,111,1.32261,16.9696,0,50,0,0.00000000,0.00000000,0,0,-255,0,-255,0,0,0,0,61.3,12.93,7.92609,5.00391
295,89,111,1.32741,16.9791,0,49,0,0.00000000,0.00000000,0,0,-255,0,-255,0,0,0,0,61.3,12.93,7.92609,5.00391
296,90,112,1.33219,16.9825,0,50,0,0.00000000,0.00000000,0,0,-255,0,-255,0,0,0,0,60.7,12.93,7.84851,5.08149
297,91,113,1.33699,16.994,0,50,0,0.00000000,0.00000000,0,0,-255,0,-255,0,0,0,0,60.7,12.93,7.84851,5.08149
298,91,113,1.34083,17.0027,0,50,0,0.00000000,0.00000000,0,0,-255,0,-255,0,0,0,0,60.1,12.93,7.77093,5.15907
299,90,113,1.34564,17.0046,0,49,0,0.00000000,0.00000000,0,0,-255,0,-255,0,0,0,0,60.1,12.93,7.77093,5.15907
300,92,112,1.35043,16.9717,0,24,0,0.00000000,0.00000000,0,0,-255,0,-255,0,0,0,0,59.7,12.92,7.71324,5.20676
301,92,111,1.35517,16.6793,0,4,0,0.00000000,0.00000000,0,0,-255,0,-255,0,0,0,0,59.7,12.92,7.71324,5.20676
302,92,112,1.35983,16.2388,0,0,0,0.00000000,0.00000000,0,0,-255,0,-255,0,0,0,0,59.8,12.93,7.73214,5.19786
303,0,111,1.36434,15.8046,0,0,0,0.00000000,0.00000000,0,0,-255,0,-255,0,0,0,0,59.8,12.93,7.73214,5.19786
304,0,111,1.36874,15.3847,0,0,0,0.00000000,0.00000000,0,0,-255,0,-255,0,0,0,0,60,12.95,7.77,5.18
305,0,111,1.37302,14.9791,0,0,0,0.00000000,0.00000000,0,0,-255,0,-255,0,0,0,0,60,12.95,7.77,5.18
306,0,112,1.37719,14.586,0,0,0,0.00000000,0.00000000,0,0,-255,0,-255,0,0,0,0,60.1,12.97,7.79497,5.17503
307,0,111,1.38125,14.2056,0,0,0,0.00000000,0.00000000,0,0,-255,0,-255,0,0,0,0,60.1,12.97,7.79497,5.17503
308,0,111,1.3852,13.8374,0,0,0,0.00000000,0.00000000,0,0,-255,0,-255,0,0,0,0,60.1,12.98,7.80098,5.17902
309,0,111,1.38905,13.4801,0,0,0,0.00000000,0.00000000,0,0,-255,0,-255,0,0,0,0,60.1,12.98,7.80098,5.17902
310,0,110,1.39282,13.1317,0,0,0,0.00000000,0.00000000,0,0,-255,0,-255,0,0,0,0,60,13,7.8,5.2
311,0,103,1.39575,12.8622,0,0,0,0.00000000,0.00000000,0,0,-255,0,-255,0,0,0,0,60,13,7.8,5.2
312,0,104,1.39933,12.5325,0,0,0,0.00000000,0.00000000,0,0,-255,0,-255,0,0,0,0,59.5,13.01,7.74095,5.26905
313,0,104,1.40282,12.2122,0,0,0,0.00000000,0.00000000,0,0,-255,0,-255,0,0,0,0,59.5,13.01,7.74095,5.26905
314,0,105,1.40622,11.9004,0,0,0,0.00000000,0.00000000,0,0,-255,0,-255,0,0,0,0,59.2,13.01,7.70192,5.30808
315,0,106,1.40954,11.5964,0,0,0,0.00000000,0.00000000,0,0,-255,0,-255,0,0,0,0,59.2,13.01,7.70192,5.30808
316,0,108,1.41277,11.2995,0,0,0,0.00000000,0.00000000,0,0,-255,0,-255,0,0,0,0,59.3,13.01,7.71493,5.29507
317,0,109,1.41591,11.0121,0,0,0,0.00000000,0.00000000,0,0,-255,0,-255,0,0,0,0,59.3,13.01,7.71493,5.29507
318,0,108,1.41897,10.7302,0,0,0,0.00000000,0.00000000,0,0,-255,0,-255,0,0,0,0,60.1,13.02,7.82502,5.19498
319,0,107,1.42197,10.4545,0,0,0,0.00000000,0.00000000,0,0,-255,0,-255,0,0,0,0,60.1,13.02,7.82502,5.19498
320,0,102,1.42488,10.1859,0,0,0,0.00000000,0.00000000,0,0,-255,0,-255,0,0,0,0,61.2,13.02,7.96824,5.05176
321,0,100,1.42771,9.9232,0,0,0,0.00000000,0.00000000,0,0,-255,0,-255,0,0,0,0,61.2,13.02,7.96824,5.05176
322,0,94,1.43047,9.66635,0,0,0,0.00000000,0.00000000,0,0,-255,0,-255,0,0,0,0,62.6,13.03,8.15678,4.87322
323,0,95,1.43317,9.41434,0,0,0,0.00000000,0.00000000,0,0,-255,0,-255,0,0,0,0,62.6,13.03,8.15678,4.87322
324,0,97,1.43527,9.21682,0,0,0,0.00000000,0.00000000,0,0,-255,0,-255,0,0,0,0,63.8,13.02,8.30676,4.71324
325,0,98,1.43784,8.97492,0,0,0,0.00000000,0.00000000,0,0,-255,0,-255,0,0,0,0,63.8,13.02,8.30676,4.71324
326,0,99,1.44034,8.73727,0,0,0,0.00000000,0.00000000,0,0,-255,0,-255,0,0,0,0,63.8,13.02,8.30676,4.71324
327,0,103,1.44277,8.50412,0,0,0,0.00000000,0.00000000,0,0,-255,0,-255,0,0,0,0,64.7,13.01,8.41747,4.59253
328,0,105,1.44514,8.27599,0,0,0,0.00000000,0.00000000,0,0,-255,0,-255,0,0,0,0,64.7,13.01,8.41747,4.59253
329,0,110,1.44744,8.0515,0,0,0,0.00000000,0.00000000,0,0,-255,0,-255,0,0,0,0,65.4,13.01,8.50854,4.50146
330,0,109,1.44968,7.83119,0,0,0,0.00000000,0.00000000,0,0,-255,0,-255,0,0,0,0,66.1,13.02,8.60622,4.41378
331,0,106,1.45186,7.61526,0,0,0,0.00000000,0.00000000,0,0,-255,0,-255,0,0,0,0,66.1,13.02,8.60622,4.41378
332,0,104,1.45397,7.40261,0,0,0,0.00000000,0.00000000,0,0,-255,0,-255,0,0,0,0,66.7,13.02,8.68434,4.33566
333,0,104,1.45603,7.19347,0,0,0,0.00000000,0.00000000,0,0,-255,0,-255,0,0,0,0,66.7,13.02,8.68434,4.33566
334,0,104,1.45803,6.988,0,0,0,0.00000000,0.00000000,0,0,-255,0,-255,0,0,0,0,67.2,13.03,8.75616,4.27384
335,0,104,1.45998,6.7847,0,0,0,0.00000000,0.00000000,0,0,-255,0,-255,0,0,0,0,67.2,13.03,8.75616,4.27384
336,0,104,1.46186,6.58567,0,0,0,0.00000000,0.00000000,0,0,-255,0,-255,0,0,0,0,67.6,13.05,8.8218,4.2282
337,0,104,1.46334,6.4277,0,0,0,0.00000000,0.00000000,0,0,-255,0,-255,0,0,0,0,67.6,13.05,8.8218,4.2282
338,0,104,1.46511,6.23415,0,0,0,0.00000000,0.00000000,0,0,-255,0,-255,0,0,0,0,68,13.06,8.8808,4.1792
339,0,103,1.46685,6.04181,0,0,0,0.00000000,0.00000000,0,0,-255,0,-255,0,0,0,0,68,13.06,8.8808,4.1792
340,0,102,1.46853,5.85309,0,0,0,0.00000000,0.00000000,0,0,-255,0,-255,0,0,0,0,68.2,13.05,8.9001,4.1499
341,0,101,1.47015,5.66696,0,0,0,0.00000000,0.00000000,0,0,-255,0,-255,0,0,0,0,68.2,13.05,8.9001,4.1499
342,0,102,1.47172,5.48333,0,0,0,0.00000000,0.00000000,0,0,-255,0,-255,0,0,0,0,68.5,13.06,8.9461,4.1139
343,0,102,1.47324,5.30147,0,0,0,0.00000000,0.00000000,0,0,-255,0,-255,0,0,0,0,68.5,13.06,8.9461,4.1139
344,0,101,1.47472,5.12145,0,0,0,0.00000000,0.00000000,0,0,-255,0,-255,0,0,0,0,68.9,13.06,8.99834,4.06166
345,0,100,1.47614,4.94401,0,0,0,0.00000000,0.00000000,0,0,-255,0,-255,0,0,0,0,68.9,13.06,8.99834,4.06166
346,0,101,1.47751,4.76846,0,0,0,0.00000000,0.00000000,0,0,-255,0,-255,0,0,0,0,68.9,13.06,8.99834,4.06166
347,0,101,1.47883,4.59557,0,0,0,0.00000000,0.00000000,0,0,-255,0,-255,0,0,0,0,69.4,13.06,9.06364,3.99636
348,0,99,1.4801,4.42318,0,0,0,0.00000000,0.00000000,0,0,-255,0,-255,0,0,0,0,69.7,13.06,9.10282,3.95718
349,0,98,1.48132,4.25378,0,0,0,0.00000000,0.00000000,0,0,-255,0,-255,0,0,0,0,69.7,13.06,9.10282,3.95718
350,0,97,1.48227,4.11894,0,0,0,0.00000000,0.00000000,0,0,-255,0,-255,0,0,0,0,69.7,13.06,9.10282,3.95718
351,0,97,1.48341,3.95135,0,0,0,0.00000000,0.00000000,0,0,-255,0,-255,0,0,0,0,69.7,13.06,9.10282,3.95718
352,0,98,1.4845,3.78586,0,0,0,0.00000000,0.00000000,0,0,-255,0,-255,0,0,0,0,69.6,12.99,9.04104,3.94896
353,0,100,1.48554,3.62186,0,0,0,0.00000000,0.00000000,0,0,-255,0,-255,0,0,0,0,69.6,12.99,9.04104,3.94896
354,0,100,1.48654,3.45883,0,0,0,0.00000000,0.00000000,0,0,-255,0,-255,0,0,0,0,70,12.95,9.065,3.885
355,0,100,1.48749,3.29732,0,0,0,0.00000000,0.00000000,0,0,-255,0,-255,0,0,0,0,70,12.95,9.065,3.885
356,0,100,1.4884,3.13699,0,0,0,0.00000000,0.00000000,0,0,-255,0,-255,0,0,0,0,70.7,12.92,9.13444,3.78556
357,0,99,1.48926,2.97777,0,0,0,0.00000000,0.00000000,0,0,-255,0,-255,0,0,0,0,70.7,12.92,9.13444,3.78556
358,0,99,1.49008,2.8195,0,0,0,0.00000000,0.00000000,0,0,-255,0,-255,0,0,0,0,71.3,12.88,9.18344,3.69656
359,0,98,1.49085,2.66201,0,0,0,0.00000000,0.00000000,0,0,-255,0,-255,0,0,0,0,71.3,12.88,9.18344,3.69656
360,0,98,1.49158,2.50524,0,0,0,0.00000000,0.00000000,0,0,-255,0,-255,0,0,0,0,72.7,12.89,9.37103,3.51897
361,0,98,1.49227,2.34985,0,0,0,0.00000000,0.00000000,0,0,-255,0,-255,0,0,0,0,72.7,12.89,9.37103,3.51897
362,0,100,1.49296,2.8465,0,23,0,0.00000000,0.00000000,0,0,-255,0,-255,0,0,0,0,73.4,12.93,9.49062,3.43938
363,1,102,1.49372,3.88277,0,42,0,0.00000000,0.00000000,0,0,-255,0,-255,0,0,0,0,73.4,12.93,9.49062,3.43938
364,1,105,1.49503,5.46594,0,80,0,0.00000000,0.00000000,0,0,-255,0,-255,0,0,0,0,73.4,12.93,9.49062,3.43938
365,86,107,1.49685,7.42484,0,100,0,0.00000000,0.00000000,0,0,-255,0,-255,0,0,0,0,73.9,12.97,9.58483,3.38517
366,98,111,1.4992,9.09118,0,99,0,0.00000000,0.00000000,0,0,-255,0,-255,0,0,0,0,74.5,13.01,9.69245,3.31755
367,96,112,1.50195,10.4378,0,99,0,0.00000000,0.00000000,0,0,-255,0,-255,0,0,0,0,74.5,13.01,9.69245,3.31755
368,95,114,1.50507,11.5927,0,99,0,0.00000000,0.00000000,0,0,-255,0,-255,0,0,0,0,74.5,13.01,9.69245,3.31755
369,94,113,1.50848,12.6007,0,100,0,0.00000000,0.00000000,0,0,-255,0,-255,0,0,0,0,75,13.05,9.7875,3.2625
370,95,112,1.51216,13.4943,0,100,0,0.00000000,0.00000000,0,0,-255,0,-255,0,0,0,0,75.1,13.06,9.80806,3.25194
371,95,111,1.51609,14.2917,0,99,0,0.00000000,0.00000000,0,0,-255,0,-255,0,0,0,0,75.1,13.06,9.80806,3.25194
372,94,110,1.52024,14.994,0,98,0,0.00000000,0.00000000,0,0,-255,0,-255,0,0,0,0,75.1,13.07,9.81557,3.25443
373,93,109,1.52455,15.6288,0,100,0,0.00000000,0.00000000,0,0,-255,0,-255,0,0,0,0,75.1,13.07,9.81557,3.25443
374,92,109,1.52903,16.2069,0,99,0,0.00000000,0.00000000,0,0,-255,0,-255,0,0,0,0,74.6,13.06,9.74276,3.31724
375,92,109,1.53368,16.7398,0,100,0,0.00000000,0.00000000,0,0,-255,0,-255,0,0,0,0,74.6,13.06,9.74276,3.31724
376,92,110,1.5375,17.129,0,99,0,0.00000000,0.00000000,0,0,-255,0,-255,0,0,0,0,73.6,13.04,9.59744,3.44256
377,90,111,1.54241,17.5776,0,99,0,0.00000000,0.00000000,0,0,-255,0,-255,0,0,0,0,73.6,13.04,9.59744,3.44256
378,91,113,1.54741,17.991,0,99,0,0.00000000,0.00000000,0,0,-255,0,-255,0,0,0,0,72.3,13.02,9.41346,3.60654
379,91,114,1.55255,18.3695,0,101,0,0.00000000,0.00000000,0,0,-255,0,-255,0,0,0,0,72.3,13.02,9.41346,3.60654
380,92,114,1.55779,18.7201,0,99,0,0.00000000,0.00000000,0,0,-255,0,-255,0,0,0,0,72.3,13.02,9.41346,3.60654
381,93,114,1.56311,19.0395,0,100,0,0.00000000,0.00000000,0,0,-255,0,-255,0,0,0,0,70.5,13.01,9.17205,3.83795
382,91,114,1.56852,19.328,0,99,0,0.00000000,0.00000000,0,0,-255,0,-255,0,0,0,0,68.3,13,8.879,4.121
383,91,113,1.57402,19.5976,0,100,0,0.00000000,0.00000000,0,0,-255,0,-255,0,0,0,0,68.3,13,8.879,4.121
384,91,113,1.57958,19.8508,0,101,0,0.00000000,0.00000000,0,0,-255,0,-255,0,0,0,0,65.4,13,8.502,4.498
385,92,113,1.58521,20.0833,0,100,0,0.00000000,0.00000000,0,0,-255,0,-255,0,0,0,0,65.4,13,8.502,4.498
386,94,114,1.59091,20.2957,0,100,0,0.00000000,0.00000000,0,0,-255,0,-255,0,0,0,0,62.4,12.99,8.10576,4.88424
387,94,114,1.59666,20.489,0,100,0,0.00000000,0.00000000,0,0,-255,0,-255,0,0,0,0,62.4,12.99,8.10576,4.88424
388,95,114,1.60247,20.6622,0,99,0,0.00000000,0.00000000,0,0,-255,0,-255,0,0,0,0,59.5,12.98,7.7231,5.2569
389,95,114,1.60714,20.7884,0,99,0,0.00000000,0.00000000,0,0,-255,0,-255,0,0,0,0,59.5,12.98,7.7231,5.2569
390,93,114,1.61304,20.9358,0,99,0,0.00000000,0.00000000,0,0,-255,0,-255,0,0,0,0,57.6,12.98,7.47648,5.50352
391,94,114,1.61895,21.0768,0,99,0,0.00000000,0.00000000,0,0,-255,0,-255,0,0,0,0,57.6,12.98,7.47648,5.50352
392,93,115,1.62492,21.2937,0,125,0,0.00000000,0.00000000,0,0,-255,0,-255,0,0,0,0,56.5,12.97,7.32805,5.64195
393,93,116,1.63097,21.5846,0,124,0,0.00000000,0.00000000,0,0,-255,0,-255,0,0,0,0,56.5,12.97,7.32805,5.64195
394,93,117,1.6371,21.8549,0,125,0,0.00000000,0.00000000,0,0,-255,0,-255,0,0,0,0,56,12.97,7.2632,5.7068
395,93,117,1.64332,22.1011,0,124,0,0.00000000,0.00000000,0,0,-255,0,-255,0,0,0,0,56,12.97,7.2632,5.7068
396,93,119,1.64957,22.3215,0,124,0,0.00000000,0.00000000,0,0,-255,0,-255,0,0,0,0,55.5,12.97,7.19835,5.77165
397,93,120,1.65591,22.5246,0,124,0,0.00000000,0.00000000,0,0,-255,0,-255,0,0,0,0,55.5,12.97,7.19835,5.77165
398,94,121,1.66228,22.7145,0,125,0,0.00000000,0.00000000,0,0,-255,0,-255,0,0,0,0,54.7,12.96,7.08912,5.87088
399,93,122,1.66871,22.8886,0,124,0,0.00000000,0.00000000,0,0,-255,0,-255,0,0,0,0,54.7,12.96,7.08912,5.87088
400,92,123,1.67519,23.0445,0,124,0,0.00000000,0.00000000,0,0,-255,0,-255,0,0,0,0,53.8,12.96,6.97248,5.98752
401,91,124,1.6817,23.186,0,124,0,0.00000000,0.00000000,0,0,-255,0,-255,0,0,0,0,53.8,12.96,6.97248,5.98752
402,91,124,1.68695,23.2909,0,124,0,0.00000000,0.00000000,0,0,-255,0,-255,0,0,0,0,53.1,12.97,6.88707,6.08293
403,92,125,1.69354,23.4179,0,125,0,0.00000000,0.00000000,0,0,-255,0,-255,0,0,0,0,53.1,12.97,6.88707,6.08293
404,92,126,1.70017,23.5344,0,124,0,0.00000000,0.00000000,0,0,-255,0,-255,0,0,0,0,52.9,12.97,6.86113,6.10887
405,91,127,1.70682,23.6418,0,126,0,0.00000000,0.00000000,0,0,-255,0,-255,0,0,0,0,52.9,12.97,6.86113,6.10887
406,91,128,1.71351,23.7414,0,124,0,0.00000000,0.00000000,0,0,-255,0,-255,0,0,0,0,52.8,12.97,6.84816,6.12184
407,91,129,1.72022,23.8254,0,125,0,0.00000000,0.00000000,0,0,-255,0,-255,0,0,0,0,52.8,12.97,6.84816,6.12184
408,92,129,1.72695,23.9103,0,126,0,0.00000000,0.00000000,0,0,-255,0,-255,0,0,0,0,53,12.97,6.8741,6.0959
409,93,130,1.73371,23.9848,0,124,0,0.00000000,0.00000000,0,0,-255,0,-255,0,0,0,0,53,12.97,6.8741,6.0959
410,93,130,1.7405,24.0434,0,123,0,0.00000000,0.00000000,0,0,-255,0,-255,0,0,0,0,52.8,12.96,6.84288,6.11712
411,90,129,1.74728,24.1055,0,125,0,0.00000000,0.00000000,0,0,-255,0,-255,0,0,0,0,52.8,12.96,6.84288,6.11712
412,89,129,1.75409,24.1657,0,126,0,0.00000000,0.00000000,0,0,-255,0,-255,0,0,0,0,52.2,12.96,6.76512,6.19488
413,91,129,1.7609,24.2214,0,124,0,0.00000000,0.00000000,0,0,-255,0,-255,0,0,0,0,52.2,12.96,6.76512,6.19488
414,92,128,1.76777,24.265,0,124,0,0.00000000,0.00000000,0,0,-255,0,-255,0,0,0,0,51.4,12.95,6.6563,6.2937
415,92,128,1.77324,24.2996,0,124,0,0.00000000,0.00000000,0,0,-255,0,-255,0,0,0,0,51.4,12.95,6.6563,6.2937
416,91,128,1.78009,24.3385,0,125,0,0.00000000,0.00000000,0,0,-255,0,-255,0,0,0,0,50.9,12.96,6.59664,6.36336
417,91,129,1.78698,24.3787,0,125,0,0.00000000,0.00000000,0,0,-255,0,-255,0,0,0,0,50.9,12.96,6.59664,6.36336
418,92,131,1.79385,24.4147,0,124,0,0.00000000,0.00000000,0,0,-255,0,-255,0,0,0,0,51,12.96,6.6096,6.3504
419,92,133,1.80073,24.4433,0,124,0,0.00000000,0.00000000,0,0,-255,0,-255,0,0,0,0,51,12.96,6.6096,6.3504
420,92,134,1.80764,24.4728,0,125,0,0.00000000,0.00000000,0,0,-255,0,-255,0,0,0,0,51.8,12.97,6.71846,6.25154
421,92,135,1.81455,24.5018,0,125,0,0.00000000,0.00000000,0,0,-255,0,-255,0,0,0,0,51.8,12.97,6.71846,6.25154
422,92,136,1.82145,24.5796,0,142,0,0.00000000,0.00000000,0,0,-255,0,-255,0,0,0,0,52.5,12.97,6.80925,6.16075
423,91,136,1.82842,24.7445,0,151,0,0.00000000,0.00000000,0,0,-255,0,-255,0,0,0,0,52.5,12.97,6.80925,6.16075
424,91,136,1.83545,24.9118,0,149,0,0.00000000,0.00000000,0,0,-255,0,-255,0,0,0,0,53,12.97,6.8741,6.0959
425,90,137,1.84249,25.0542,0,150,0,0.00000000,0.00000000,0,0,-255,0,-255,0,0,0,0,53,12.97,6.8741,6.0959
426,90,137,1.84958,25.191,0,150,0,0.00000000,0.00000000,0,0,-255,0,-255,0,0,0,0,53.6,12.96,6.94656,6.01344
427,90,135,1.85668,25.3153,0,150,0,0.00000000,0.00000000,0,0,-255,0,-255,0,0,0,0,53.6,12.96,6.94656,6.01344
428,91,135,1.86243,25.4068,0,149,0,0.00000000,0.00000000,0,0,-255,0,-255,0,0,0,0,54,12.96,6.9984,5.9616
429,91,133,1.8696,25.508,0,150,0,0.00000000,0.00000000,0,0,-255,0,-255,0,0,0,0,54,12.96,6.9984,5.9616
430,91,132,1.8768,25.6045,0,150,0,0.00000000,0.00000000,0,0,-255,0,-255,0,0,0,0,53.9,12.96,6.98544,5.97456
431,91,131,1.88405,25.6858,0,149,0,0.00000000,0.00000000,0,0,-255,0,-255,0,0,0,0,53.9,12.96,6.98544,5.97456
432,89,131,1.89131,25.7662,0,150,0,0.00000000,0.00000000,0,0,-255,0,-255,0,0,0,0,53.8,12.96,6.97248,5.98752
433,90,131,1.89857,25.8367,0,149,0,0.00000000,0.00000000,0,0,-255,0,-255,0,0,0,0,53.8,12.96,6.97248,5.98752
434,90,131,1.90587,25.9018,0,149,0,0.00000000,0.00000000,0,0,-255,0,-255,0,0,0,0,53.5,12.95,6.92825,6.02175
435,90,131,1.91319,25.9638,0,151,0,0.00000000,0.00000000,0,0,-255,0,-255,0,0,0,0,53.5,12.95,6.92825,6.02175
436,90,130,1.92053,26.0237,0,149,0,0.00000000,0.00000000,0,0,-255,0,-255,0,0,0,0,53.1,12.94,6.87114,6.06886
437,90,129,1.92789,26.0718,0,150,0,0.00000000,0.00000000,0,0,-255,0,-255,0,0,0,0,53.1,12.94,6.87114,6.06886
438,90,129,1.93524,26.1179,0,149,0,0.00000000,0.00000000,0,0,-255,0,-255,0,0,0,0,52.3,12.94,6.76762,6.17238
439,90,130,1.9426,26.1577,0,150,0,0.00000000,0.00000000,0,0,-255,0,-255,0,0,0,0,52.3,12.94,6.76762,6.17238
440,91,131,1.94999,26.1963,0,149,0,0.00000000,0.00000000,0,0,-255,0,-255,0,0,0,0,51.5,12.94,6.6641,6.2759
441,91,131,1.9559,26.221,0,150,0,0.00000000,0.00000000,0,0,-255,0,-255,0,0,0,0,51.5,12.94,6.6641,6.2759
442,90,132,1.96332,26.2505,0,151,0,0.00000000,0.00000000,0,0,-255,0,-255,0,0,0,0,50.9,12.94,6.58646,6.35354
443,90,133,1.97073,26.2827,0,149,0,0.00000000,0.00000000,0,0,-255,0,-255,0,0,0,0,50.9,12.94,6.58646,6.35354
444,90,134,1.97816,26.3038,0,149,0,0.00000000,0.00000000,0,0,-255,0,-255,0,0,0,0,50.8,12.95,6.5786,6.3714
445,90,136,1.98557,26.3253,0,149,0,0.00000000,0.00000000,0,0,-255,0,-255,0,0,0,0,50.8,12.95,6.5786,6.3714
446,90,136,1.99302,26.3481,0,150,0,0.00000000,0.00000000,0,0,-255,0,-255,0,0,0,0,50.8,12.95,6.5786,6.3714
447,90,135,2.00043,26.3674,0,149,0,0.00000000,0.00000000,0,0,-255,0,-255,0,0,0,0,50.8,12.95,6.5786,6.3714
448,90,137,2.00787,26.3858,0,149,0,0.00000000,0.00000000,0,0,-255,0,-255,0,0,0,0,50.5,12.96,6.5448,6.4152
449,90,137,2.01533,26.399,0,149,0,0.00000000,0.00000000,0,0,-255,0,-255,0,0,0,0,50.5,12.96,6.5448,6.4152
450,90,138,2.02278,26.4122,0,149,0,0.00000000,0.00000000,0,0,-255,0,-255,0,0,0,0,50.5,12.96,6.5448,6.4152
451,90,139,2.03021,26.4242,0,149,0,0.00000000,0.00000000,0,0,-255,0,-255,0,0,0,0,50.2,12.96,6.50592,6.45408
452,91,140,2.03767,26.4995,0,174,0,0.00000000,0.00000000,0,0,-255,0,-255,0,0,0,0,50.1,12.97,6.49797,6.47203
453,89,140,2.04517,26.652,0,175,0,0.00000000,0.00000000,0,0,-255,0,-255,0,0,0,0,50.1,12.97,6.49797,6.47203
454,90,141,2.05122,26.7709,0,175,0,0.00000000,0.00000000,0,0,-255,0,-255,0,0,0,0,49.9,12.97,6.47203,6.49797
455,90,140,2.05879,26.901,0,175,0,0.00000000,0.00000000,0,0,-255,0,-255,0,0,0,0,49.9,12.97,6.47203,6.49797
456,90,139,2.06639,27.0171,0,174,0,0.00000000,0.00000000,0,0,-255,0,-255,0,0,0,0,49.6,12.98,6.43808,6.54192
457,90,139,2.07403,27.1252,0,175,0,0.00000000,0.00000000,0,0,-255,0,-255,0,0,0,0,49.6,12.98,6.43808,6.54192
458,89,139,2.08169,27.2258,0,175,0,0.00000000,0.00000000,0,0,-255,0,-255,0,0,0,0,49.5,12.98,6.4251,6.5549
459,91,139,2.08937,27.3106,0,174,0,0.00000000,0.00000000,0,0,-255,0,-255,0,0,0,0,49.5,12.98,6.4251,6.5549
460,91,138,2.0971,27.3892,0,175,0,0.00000000,0.00000000,0,0,-255,0,-255,0,0,0,0,49.8,12.98,6.46404,6.51596
461,89,137,2.10485,27.4614,0,174,0,0.00000000,0.00000000,0,0,-255,0,-255,0,0,0,0,49.8,12.98,6.46404,6.51596
462,89,137,2.1126,27.5252,0,174,0,0.00000000,0.00000000,0,0,-255,0,-255,0,0,0,0,49.6,12.98,6.43808,6.54192
463,88,136,2.12036,27.5841,0,174,0,0.00000000,0.00000000,0,0,-255,0,-255,0,0,0,0,49.6,12.98,6.43808,6.54192
464,88,136,2.12817,27.6389,0,174,0,0.00000000,0.00000000,0,0,-255,0,-255,0,0,0,0,49.4,12.98,6.41212,6.56788
465,89,136,2.13596,27.6851,0,174,0,0.00000000,0.00000000,0,0,-255,0,-255,0,0,0,0,49.4,12.98,6.41212,6.56788
466,90,135,2.14379,27.7278,0,175,0,0.00000000,0.00000000,0,0,-255,0,-255,0,0,0,0,49,12.98,6.3602,6.6198
467,90,135,2.15004,27.7586,0,175,0,0.00000000,0.00000000,0,0,-255,0,-255,0,0,0,0,49,12.98,6.3602,6.6198
468,90,135,2.1579,27.7984,0,175,0,0.00000000,0.00000000,0,0,-255,0,-255,0,0,0,0,48.5,12.97,6.29045,6.67955
469,89,136,2.16572,27.8321,0,175,0,0.00000000,0.00000000,0,0,-255,0,-255,0,0,0,0,48.5,12.97,6.29045,6.67955
470,90,135,2.17358,27.8621,0,174,0,0.00000000,0.00000000,0,0,-255,0,-255,0,0,0,0,48.2,12.97,6.25154,6.71846
471,89,135,2.18146,27.8845,0,174,0,0.00000000,0.00000000,0,0,-255,0,-255,0,0,0,0,48.2,12.97,6.25154,6.71846
472,89,135,2.1893,27.9102,0,174,0,0.00000000,0.00000000,0,0,-255,0,-255,0,0,0,0,47.6,12.97,6.17372,6.79628
473,88,134,2.1972,27.932,0,175,0,0.00000000,0.00000000,0,0,-255,0,-255,0,0,0,0,47.6,12.97,6.17372,6.79628
474,89,134,2.20507,27.9556,0,175,0,0.00000000,0.00000000,0,0,-255,0,-255,0,0,0,0,47,12.97,6.0959,6.8741
475,89,134,2.21298,27.9738,0,175,0,0.00000000,0.00000000,0,0,-255,0,-255,0,0,0,0,47,12.97,6.0959,6.8741
476,89,134,2.22087,27.9935,0,175,0,0.00000000,0.00000000,0,0,-255,0,-255,0,0,0,0,46.7,12.97,6.05699,6.91301
477,89,134,2.22875,28.0108,0,174,0,0.00000000,0.00000000,0,0,-255,0,-255,0,0,0,0,46.7,12.97,6.05699,6.91301
478,89,133,2.23665,28.0216,0,174,0,0.00000000,0.00000000,0,0,-255,0,-255,0,0,0,0,46.6,12.97,6.04402,6.92598
479,89,133,2.24459,28.0387,0,175,0,0.00000000,0.00000000,0,0,-255,0,-255,0,0,0,0,46.6,12.97,6.04402,6.92598
480,89,133,2.2509,28.0458,0,174,0,0.00000000,0.00000000,0,0,-255,0,-255,0,0,0,0,46.3,12.97,6.00511,6.96489
481,89,134,2.25882,28.0534,0,174,0,0.00000000,0.00000000,0,0,-255,0,-255,0,0,0,0,46.3,12.97,6.00511,6.96489
482,89,134,2.26673,28.0929,0,182,0,0.00000000,0.00000000,0,0,-255,0,-255,0,0,0,0,45.9,12.97,5.95323,7.01677
483,88,134,2.27468,28.2176,0,199,0,0.00000000,0.00000000,0,0,-255,0,-255,0,0,0,0,45.9,12.97,5.95323,7.01677
484,88,136,2.28265,28.3486,0,199,0,0.00000000,0.00000000,0,0,-255,0,-255,0,0,0,0,45.5,12.97,5.90135,7.06865
485,88,137,2.29068,28.4707,0,199,0,0.00000000,0.00000000,0,0,-255,0,-255,0,0,0,0,45.5,12.97,5.90135,7.06865
486,89,137,2.29872,28.5764,0,199,0,0.00000000,0.00000000,0,0,-255,0,-255,0,0,0,0,45.3,12.97,5.87541,7.09459
487,89,138,2.30678,28.6766,0,200,0,0.00000000,0.00000000,0,0,-255,0,-255,0,0,0,0,45.3,12.97,5.87541,7.09459
488,88,139,2.31488,28.7658,0,200,0,0.00000000,0.00000000,0,0,-255,0,-255,0,0,0,0,45.5,12.97,5.90135,7.06865
489,89,141,2.32301,28.8484,0,200,0,0.00000000,0.00000000,0,0,-255,0,-255,0,0,0,0,45.5,12.97,5.90135,7.06865
490,89,141,2.33117,28.9203,0,199,0,0.00000000,0.00000000,0,0,-255,0,-255,0,0,0,0,45.3,12.98,5.87994,7.10006
491,89,141,2.33935,28.9817,0,199,0,0.00000000,0.00000000,0,0,-255,0,-255,0,0,0,0,45.3,12.98,5.87994,7.10006
492,89,142,2.34753,29.0418,0,200,0,0.00000000,0.00000000,0,0,-255,0,-255,0,0,0,0,44.9,12.98,5.82802,7.15198
493,88,142,2.35408,29.0831,0,199,0,0.00000000,0.00000000,0,0,-255,0,-255,0,0,0,0,44.9,12.98,5.82802,7.15198
494,90,144,2.3623,29.133,0,199,0,0.00000000,0.00000000,0,0,-255,0,-255,0,0,0,0,44.6,12.98,5.78908,7.19092
495,90,144,2.37052,29.1725,0,199,0,0.00000000,0.00000000,0,0,-255,0,-255,0,0,0,0,44.6,12.98,5.78908,7.19092
496,89,144,2.37874,29.2143,0,200,0,0.00000000,0.00000000,0,0,-255,0,-255,0,0,0,0,44.8,12.98,5.81504,7.16496
497,89,144,2.38701,29.2547,0,200,0,0.00000000,0.00000000,0,0,-255,0,-255,0,0,0,0,44.8,12.98,5.81504,7.16496
498,88,143,2.39527,29.2863,0,199,0,0.00000000,0.00000000,0,0,-255,0,-255,0,0,0,0,44.1,12.97,5.71977,7.25023
499,88,144,2.40354,29.3117,0,200,0,0.00000000,0.00000000,0,0,-255,0,-255,0,0,0,0,44.1,12.97,5.71977,7.25023
500,88,142,2.41179,29.3415,0,200,0,0.00000000,0.00000000,0,0,-255,0,-255,0,0,0,0,43.5,12.97,5.64195,7.32805
501,88,141,2.42008,29.3685,0,200,0,0.00000000,0.00000000,0,0,-255,0,-255,0,0,0,0,43.5,12.97,5.64195,7.32805
502,89,139,2.42837,29.3838,0,199,0,0.00000000,0.00000000,0,0,-255,0,-255,0,0,0,0,43.1,12.97,5.59007,7.37993
503,87,139,2.43667,29.4057,0,201,0,0.00000000,0.00000000,0,0,-255,0,-255,0,0,0,0,43.1,12.97,5.59007,7.37993
504,88,140,2.44495,29.426,0,200,0,0.00000000,0.00000000,0,0,-255,0,-255,0,0,0,0,42.4,12.98,5.50352,7.47648
505,88,140,2.45326,29.441,0,199,0,0.00000000,0.00000000,0,0,-255,0,-255,0,0,0,0,42.4,12.98,5.50352,7.47648
506,88,140,2.45991,29.4567,0,200,0,0.00000000,0.00000000,0,0,-255,0,-255,0,0,0,0,41.2,12.99,5.35188,7.63812
507,89,141,2.46822,29.4699,0,199,0,0.00000000,0.00000000,0,0,-255,0,-255,0,0,0,0,41.2,12.99,5.35188,7.63812
508,88,141,2.47654,29.4754,0,198,0,0.00000000,0.00000000,0,0,-255,0,-255,0,0,0,0,40.8,12.99,5.29992,7.69008
509,88,142,2.48485,29.4843,0,200,0,0.00000000,0.00000000,0,0,-255,0,-255,0,0,0,0,40.8,12.99,5.29992,7.69008
510,89,143,2.49319,29.497,0,199,0,0.00000000,0.00000000,0,0,-255,0,-255,0,0,0,0,40.2,13,5.226,7.774
511,89,143,2.50148,29.5079,0,199,0,0.00000000,0.00000000,0,0,-255,0,-255,0,0,0,0,40.2,13,5.226,7.774
512,89,144,2.50983,29.5539,0,217,0,0.00000000,0.00000000,0,0,-255,0,-255,0,0,0,0,40.2,13,5.226,7.774
513,87,144,2.51818,29.6763,0,224,0,0.00000000,0.00000000,0,0,-255,0,-255,0,0,0,0,40,13,5.2,7.8
514,88,144,2.52658,29.8039,0,226,0,0.00000000,0.00000000,0,0,-255,0,-255,0,0,0,0,40,13,5.2,7.8
515,89,145,2.53498,29.9144,0,225,0,0.00000000,0.00000000,0,0,-255,0,-255,0,0,0,0,40,13,5.2,7.8
516,89,145,2.54347,30.0098,0,223,0,0.00000000,0.00000000,0,0,-255,0,-255,0,0,0,0,40,13,5.2,7.8
517,89,145,2.55195,30.105,0,227,0,0.00000000,0.00000000,0,0,-255,0,-255,0,0,0,0,40.2,12.99,5.22198,7.76802
518,88,146,2.56044,30.1901,0,225,0,0.00000000,0.00000000,0,0,-255,0,-255,0,0,0,0,40.3,12.99,5.23497,7.75503
519,90,146,2.56727,30.2463,0,223,0,0.00000000,0.00000000,0,0,-255,0,-255,0,0,0,0,40.3,12.99,5.23497,7.75503
520,89,146,2.5758,30.3087,0,224,0,0.00000000,0.00000000,0,0,-255,0,-255,0,0,0,0,40.2,12.98,5.21796,7.76204
521,89,147,2.58436,30.3664,0,224,0,0.00000000,0.00000000,0,0,-255,0,-255,0,0,0,0,40.2,12.98,5.21796,7.76204
522,89,148,2.59292,30.4199,0,225,0,0.00000000,0.00000000,0,0,-255,0,-255,0,0,0,0,40.1,12.98,5.20498,7.77502
523,87,148,2.60151,30.4731,0,226,0,0.00000000,0.00000000,0,0,-255,0,-255,0,0,0,0,40.1,12.98,5.20498,7.77502
524,89,149,2.61014,30.5242,0,225,0,0.00000000,0.00000000,0,0,-255,0,-255,0,0,0,0,40.4,12.98,5.24392,7.73608
525,89,150,2.61873,30.5607,0,224,0,0.00000000,0.00000000,0,0,-255,0,-255,0,0,0,0,40.4,12.98,5.24392,7.73608
526,89,150,2.62735,30.5977,0,225,0,0.00000000,0.00000000,0,0,-255,0,-255,0,0,0,0,40.2,12.98,5.21796,7.76204
527,89,152,2.63599,30.6316,0,225,0,0.00000000,0.00000000,0,0,-255,0,-255,0,0,0,0,40.2,12.98,5.21796,7.76204
528,88,152,2.64464,30.6584,0,224,0,0.00000000,0.00000000,0,0,-255,0,-255,0,0,0,0,39.6,12.99,5.14404,7.84596
529,90,152,2.65329,30.6857,0,225,0,0.00000000,0.00000000,0,0,-255,0,-255,0,0,0,0,39.6,12.99,5.14404,7.84596
530,90,153,2.66197,30.7108,0,225,0,0.00000000,0.00000000,0,0,-255,0,-255,0,0,0,0,39.5,12.99,5.13105,7.85895
531,90,154,2.67063,30.7317,0,224,0,0.00000000,0.00000000,0,0,-255,0,-255,0,0,0,0,39.5,12.99,5.13105,7.85895
532,90,154,2.67757,30.7457,0,225,0,0.00000000,0.00000000,0,0,-255,0,-255,0,0,0,0,40,12.99,5.196,7.794
533,90,154,2.68623,30.76,0,224,0,0.00000000,0.00000000,0,0,-255,0,-255,0,0,0,0,40,12.99,5.196,7.794
534,89,155,2.69493,30.7777,0,226,0,0.00000000,0.00000000,0,0,-255,0,-255,0,0,0,0,39.9,12.99,5.18301,7.80699
535,90,156,2.7036,30.7954,0,224,0,0.00000000,0.00000000,0,0,-255,0,-255,0,0,0,0,39.9,12.99,5.18301,7.80699
536,90,156,2.7123,30.805,0,225,0,0.00000000,0.00000000,0,0,-255,0,-255,0,0,0,0,39.6,12.99,5.14404,7.84596
537,90,156,2.721,30.8227,0,226,0,0.00000000,0.00000000,0,0,-255,0,-255,0,0,0,0,39.6,12.99,5.14404,7.84596
538,90,156,2.72969,30.8263,0,223,0,0.00000000,0.00000000,0,0,-255,0,-255,0,0,0,0,40,12.98,5.192,7.788
539,89,155,2.73838,30.8306,0,224,0,0.00000000,0.00000000,0,0,-255,0,-255,0,0,0,0,40,12.98,5.192,7.788
540,89,154,2.74709,30.8407,0,225,0,0.00000000,0.00000000,0,0,-255,0,-255,0,0,0,0,40.2,12.98,5.21796,7.76204
541,89,155,2.75577,30.8547,0,226,0,0.00000000,0.00000000,0,0,-255,0,-255,0,0,0,0,40.2,12.98,5.21796,7.76204
542,89,154,2.76448,30.8575,0,222,0,0.00000000,0.00000000,0,0,-255,0,-255,0,0,0,0,39.7,12.98,5.15306,7.82694
543,87,153,2.77318,30.8548,0,225,0,0.00000000,0.00000000,0,0,-255,0,-255,0,0,0,0,39.7,12.98,5.15306,7.82694
544,88,151,2.78189,30.8634,0,224,0,0.00000000,0.00000000,0,0,-255,0,-255,0,0,0,0,39.3,12.98,5.10114,7.87886
545,88,151,2.78886,30.89,0,236,0,0.00000000,0.00000000,0,0,-255,0,-255,0,0,0,0,39.3,12.98,5.10114,7.87886
546,88,151,2.79759,30.992,0,249,0,0.00000000,0.00000000,0,0,-255,0,-255,0,0,0,0,39.2,12.98,5.08816,7.89184
547,87,152,2.80636,31.11,0,250,0,0.00000000,0.00000000,0,0,-255,0,-255,0,0,0,0,39.2,12.98,5.08816,7.89184
548,87,153,2.81517,31.2137,0,249,0,0.00000000,0.00000000,0,0,-255,0,-255,0,0,0,0,39.1,12.98,5.07518,7.90482
549,87,154,2.82395,31.3076,0,249,0,0.00000000,0.00000000,0,0,-255,0,-255,0,0,0,0,39.1,12.98,5.07518,7.90482
550,87,153,2.83283,31.3925,0,251,0,0.00000000,0.00000000,0,0,-255,0,-255,0,0,0,0,38.7,12.99,5.02713,7.96287
551,87,154,2.84167,31.475,0,251,0,0.00000000,0.00000000,0,0,-255,0,-255,0,0,0,0,38.7,12.99,5.02713,7.96287
552,87,153,2.85057,31.5442,0,249,0,0.00000000,0.00000000,0,0,-255,0,-255,0,0,0,0,38,12.99,4.9362,8.0538
553,87,153,2.85948,31.6063,0,251,0,0.00000000,0.00000000,0,0,-255,0,-255,0,0,0,0,38,12.99,4.9362,8.0538
554,87,153,2.86841,31.6713,0,250,0,0.00000000,0.00000000,0,0,-255,0,-255,0,0,0,0,37.6,12.99,4.88424,8.10576
555,89,154,2.87733,31.7211,0,250,0,0.00000000,0.00000000,0,0,-255,0,-255,0,0,0,0,37.6,12.99,4.88424,8.10576
556,90,154,2.88632,31.7614,0,249,0,0.00000000,0.00000000,0,0,-255,0,-255,0,0,0,0,37.3,12.99,4.84527,8.14473
557,90,155,2.89526,31.7969,0,249,0,0.00000000,0.00000000,0,0,-255,0,-255,0,0,0,0,37.3,12.99,4.84527,8.14473
558,89,155,2.90244,31.8227,0,249,0,0.00000000,0.00000000,0,0,-255,0,-255,0,0,0,0,36.4,12.99,4.72836,8.26164
559,89,155,2.91143,31.8559,0,249,0,0.00000000,0.00000000,0,0,-255,0,-255,0,0,0,0,36.4,12.99,4.72836,8.26164
560,89,155,2.92044,31.8817,0,249,0,0.00000000,0.00000000,0,0,-255,0,-255,0,0,0,0,35.5,13,4.615,8.385
561,89,157,2.92942,31.9058,0,249,0,0.00000000,0.00000000,0,0,-255,0,-255,0,0,0,0,35.5,13,4.615,8.385
562,89,156,2.93841,31.9293,0,249,0,0.00000000,0.00000000,0,0,-255,0,-255,0,0,0,0,35.4,13,4.602,8.398
563,89,157,2.94745,31.9461,0,248,0,0.00000000,0.00000000,0,0,-255,0,-255,0,0,0,0,35.4,13,4.602,8.398
564,87,157,2.95646,31.9627,0,250,0,0.00000000,0.00000000,0,0,-255,0,-255,0,0,0,0,35.4,13,4.602,8.398
565,88,159,2.96549,31.9818,0,251,0,0.00000000,0.00000000,0,0,-255,0,-255,0,0,0,0,35.4,13,4.602,8.398
566,89,159,2.97449,31.9998,0,250,0,0.00000000,0.00000000,0,0,-255,0,-255,0,0,0,0,35,12.99,4.5465,8.4435
567,89,159,2.98352,32.0112,0,249,0,0.00000000,0.00000000,0,0,-255,0,-255,0,0,0,0,35,12.99,4.5465,8.4435
568,89,160,2.99255,32.0259,0,251,0,0.00000000,0.00000000,0,0,-255,0,-255,0,0,0,0,35.2,12.99,4.57248,8.41752
569,89,161,3.00159,32.0379,0,249,0,0.00000000,0.00000000,0,0,-255,0,-255,0,0,0,0,35.2,12.99,4.57248,8.41752
570,90,161,3.01064,32.0503,0,250,0,0.00000000,0.00000000,0,0,-255,0,-255,0,0,0,0,35.9,12.99,4.66341,8.32659
571,91,161,3.01787,32.0583,0,249,0,0.00000000,0.00000000,0,0,-255,0,-255,0,0,0,0,35.9,12.99,4.66341,8.32659
572,91,164,3.0269,32.0863,0,267,0,0.00000000,0.00000000,0,0,-255,0,-255,0,0,0,0,36.3,12.99,4.71537,8.27463
573,90,163,3.03598,32.1984,0,273,0,0.00000000,0.00000000,0,0,-255,0,-255,0,0,0,0,36.3,12.99,4.71537,8.27463
574,89,164,3.04508,32.3182,0,276,0,0.00000000,0.00000000,0,0,-255,0,-255,0,0,0,0,36.3,12.99,4.71537,8.27463
575,90,164,3.0542,32.4201,0,273,0,0.00000000,0.00000000,0,0,-255,0,-255,0,0,0,0,36,12.99,4.6764,8.3136
576,90,164,3.06339,32.5044,0,275,0,0.00000000,0.00000000,0,0,-255,0,-255,0,0,0,0,35.7,12.99,4.63743,8.35257
577,89,164,3.07256,32.5855,0,274,0,0.00000000,0.00000000,0,0,-255,0,-255,0,0,0,0,35.7,12.99,4.63743,8.35257
578,89,164,3.08177,32.6558,0,274,0,0.00000000,0.00000000,0,0,-255,0,-255,0,0,0,0,35.4,12.99,4.59846,8.39154
579,88,164,3.09097,32.7218,0,275,0,0.00000000,0.00000000,0,0,-255,0,-255,0,0,0,0,35.4,12.99,4.59846,8.39154
580,89,164,3.10022,32.7793,0,273,0,0.00000000,0.00000000,0,0,-255,0,-255,0,0,0,0,35.1,12.99,4.55949,8.43051
581,89,164,3.10948,32.828,0,275,0,0.00000000,0.00000000,0,0,-255,0,-255,0,0,0,0,35.1,12.99,4.55949,8.43051
582,90,164,3.11873,32.8779,0,275,0,0.00000000,0.00000000,0,0,-255,0,-255,0,0,0,0,34.2,12.99,4.44258,8.54742
583,90,164,3.12803,32.9178,0,273,0,0.00000000,0.00000000,0,0,-255,0,-255,0,0,0,0,34.2,12.99,4.44258,8.54742
584,88,163,3.13545,32.945,0,275,0,0.00000000,0.00000000,0,0,-255,0,-255,0,0,0,0,34.2,12.99,4.44258,8.54742
585,90,163,3.14476,32.9872,0,275,0,0.00000000,0.00000000,0,0,-255,0,-255,0,0,0,0,34,12.98,4.4132,8.5668
586,90,163,3.1541,33.0175,0,275,0,0.00000000,0.00000000,0,0,-255,0,-255,0,0,0,0,34,12.98,4.4132,8.5668
587,91,162,3.16338,33.0452,0,275,0,0.00000000,0.00000000,0,0,-255,0,-255,0,0,0,0,33.8,12.98,4.38724,8.59276
588,90,163,3.1727,33.0744,0,276,0,0.00000000,0.00000000,0,0,-255,0,-255,0,0,0,0,33.3,12.98,4.32234,8.65766
589,90,162,3.18205,33.0961,0,274,0,0.00000000,0.00000000,0,0,-255,0,-255,0,0,0,0,33.3,12.98,4.32234,8.65766
590,90,163,3.19139,33.11,0,274,0,0.00000000,0.00000000,0,0,-255,0,-255,0,0,0,0,32.4,12.97,4.20228,8.76772
591,90,162,3.20074,33.1242,0,274,0,0.00000000,0.00000000,0,0,-255,0,-255,0,0,0,0,32.4,12.97,4.20228,8.76772
592,90,162,3.21008,33.1417,0,276,0,0.00000000,0.00000000,0,0,-255,0,-255,0,0,0,0,32.2,12.98,4.17956,8.80044
593,90,163,3.21942,33.1577,0,275,0,0.00000000,0.00000000,0,0,-255,0,-255,0,0,0,0,32.2,12.98,4.17956,8.80044
594,90,164,3.22878,33.1644,0,274,0,0.00000000,0.00000000,0,0,-255,0,-255,0,0,0,0,32,12.97,4.1504,8.8196
595,90,164,3.23816,33.1732,0,273,0,0.00000000,0.00000000,0,0,-255,0,-255,0,0,0,0,32,12.97,4.1504,8.8196
596,89,164,3.24749,33.1736,0,274,0,0.00000000,0.00000000,0,0,-255,0,-255,0,0,0,0,31.6,12.98,4.10168,8.87832
597,88,164,3.25498,33.1825,0,276,0,0.00000000,0.00000000,0,0,-255,0,-255,0,0,0,0,31.6,12.98,4.10168,8.87832
598,88,164,3.26433,33.1969,0,275,0,0.00000000,0.00000000,0,0,-255,0,-255,0,0,0,0,31.2,12.98,4.04976,8.93024
599,88,163,3.27374,33.2033,0,274,0,0.00000000,0.00000000,0,0,-255,0,-255,0,0,0,0,31.2,12.98,4.04976,8.93024
600,88,162,3.28309,33.2137,0,275,0,0.00000000,0.00000000,0,0,-255,0,-255,0,0,0,0,31.1,12.99,4.03989,8.95011
601,89,163,3.29247,33.2234,0,275,0,0.00000000,0.00000000,0,0,-255,0,-255,0,0,0,0,31.1,12.99,4.03989,8.95011
602,89,163,3.30183,33.2473,0,292,0,0.00000000,0.00000000,0,0,-255,0,-255,0,0,0,0,30,12.99,3.897,9.093
603,90,163,3.31122,33.3509,0,299,0,0.00000000,0.00000000,0,0,-255,0,-255,0,0,0,0,30,12.99,3.897,9.093
604,89,164,3.32064,33.4615,0,300,0,0.00000000,0.00000000,0,0,-255,0,-255,0,0,0,0,29.3,12.98,3.80314,9.17686
605,88,165,3.3301,33.5586,0,300,0,0.00000000,0.00000000,0,0,-255,0,-255,0,0,0,0,29.3,12.98,3.80314,9.17686
606,89,165,3.33959,33.6469,0,300,0,0.00000000,0.00000000,0,0,-255,0,-255,0,0,0,0,29.2,12.98,3.79016,9.18984
607,90,166,3.34912,33.7233,0,299,0,0.00000000,0.00000000,0,0,-255,0,-255,0,0,0,0,29.2,12.98,3.79016,9.18984
608,90,167,3.35861,33.7886,0,299,0,0.00000000,0.00000000,0,0,-255,0,-255,0,0,0,0,29.1,12.98,3.77718,9.20282
609,89,167,3.36816,33.8461,0,299,0,0.00000000,0.00000000,0,0,-255,0,-255,0,0,0,0,29.1,12.98,3.77718,9.20282
610,90,168,3.37579,33.8874,0,299,0,0.00000000,0.00000000,0,0,-255,0,-255,0,0,0,0,28.8,12.96,3.73248,9.22752
611,90,167,3.38537,33.9335,0,298,0,0.00000000,0.00000000,0,0,-255,0,-255,0,0,0,0,28.8,12.96,3.73248,9.22752
612,89,168,3.39494,33.9723,0,300,0,0.00000000,0.00000000,0,0,-255,0,-255,0,0,0,0,29.3,12.96,3.79728,9.16272
613,89,169,3.40453,34.0201,0,301,0,0.00000000,0.00000000,0,0,-255,0,-255,0,0,0,0,29.3,12.96,3.79728,9.16272
614,90,169,3.41412,34.053,0,299,0,0.00000000,0.00000000,0,0,-255,0,-255,0,0,0,0,29.2,12.95,3.7814,9.1686
615,89,169,3.42377,34.0847,0,300,0,0.00000000,0.00000000,0,0,-255,0,-255,0,0,0,0,29.2,12.95,3.7814,9.1686
616,90,169,3.43341,34.1143,0,300,0,0.00000000,0.00000000,0,0,-255,0,-255,0,0,0,0,28.8,12.96,3.73248,9.22752
617,90,169,3.44303,34.1414,0,300,0,0.00000000,0.00000000,0,0,-255,0,-255,0,0,0,0,28.8,12.96,3.73248,9.22752
618,91,169,3.45264,34.16,0,298,0,0.00000000,0.00000000,0,0,-255,0,-255,0,0,0,0,29,12.95,3.7555,9.1945
619,91,169,3.46228,34.1721,0,298,0,0.00000000,0.00000000,0,0,-255,0,-255,0,0,0,0,29,12.95,3.7555,9.1945
620,89,169,3.47194,34.189,0,301,0,0.00000000,0.00000000,0,0,-255,0,-255,0,0,0,0,28.9,12.96,3.74544,9.21456
621,89,169,3.48156,34.2092,0,300,0,0.00000000,0.00000000,0,0,-255,0,-255,0,0,0,0,28.9,12.96,3.74544,9.21456
622,90,169,3.49121,34.2245,0,299,0,0.00000000,0.00000000,0,0,-255,0,-255,0,0,0,0,28.2,12.96,3.65472,9.30528
623,90,169,3.49895,34.2323,0,299,0,0.00000000,0.00000000,0,0,-255,0,-255,0,0,0,0,28.2,12.96,3.65472,9.30528
624,89,169,3.5086,34.2433,0,300,0,0.00000000,0.00000000,0,0,-255,0,-255,0,0,0,0,27.7,12.96,3.58992,9.37008
625,90,169,3.51825,34.2554,0,300,0,0.00000000,0.00000000,0,0,-255,0,-255,0,0,0,0,27.7,12.96,3.58992,9.37008
626,90,169,3.52795,34.2629,0,299,0,0.00000000,0.00000000,0,0,-255,0,-255,0,0,0,0,27.1,12.96,3.51216,9.44784
627,90,170,3.53761,34.2701,0,299,0,0.00000000,0.00000000,0,0,-255,0,-255,0,0,0,0,27.1,12.96,3.51216,9.44784
628,90,170,3.54725,34.2787,0,300,0,0.00000000,0.00000000,0,0,-255,0,-255,0,0,0,0,26.3,12.97,3.41111,9.55889
629,90,169,3.55694,34.2869,0,300,0,0.00000000,0.00000000,0,0,-255,0,-255,0,0,0,0,26.3,12.97,3.41111,9.55889
630,89,170,3.56659,34.2924,0,300,0,0.00000000,0.00000000,0,0,-255,0,-255,0,0,0,0,25.8,12.97,3.34626,9.62374
631,90,170,3.57628,34.3033,0,301,0,0.00000000,0.00000000,0,0,-255,0,-255,0,0,0,0,25.8,12.97,3.34626,9.62374
632,91,170,3.58595,34.3462,0,314,0,0.00000000,0.00000000,0,0,-255,0,-255,0,0,0,0,25.8,12.97,3.34626,9.62374
633,91,171,3.59567,34.4384,0,324,0,0.00000000,0.00000000,0,0,-255,0,-255,0,0,0,0,25.8,12.97,3.34626,9.62374
634,91,170,3.60538,34.5422,0,324,0,0.00000000,0.00000000,0,0,-255,0,-255,0,0,0,0,26.2,12.97,3.39814,9.57186
635,90,171,3.61518,34.6293,0,324,0,0.00000000,0.00000000,0,0,-255,0,-255,0,0,0,0,26.2,12.97,3.39814,9.57186
636,91,171,3.62297,34.6965,0,324,0,0.00000000,0.00000000,0,0,-255,0,-255,0,0,0,0,26.3,12.97,3.41111,9.55889
637,90,172,3.63279,34.7629,0,323,0,0.00000000,0.00000000,0,0,-255,0,-255,0,0,0,0,26.3,12.97,3.41111,9.55889
638,90,172,3.6426,34.826,0,324,0,0.00000000,0.00000000,0,0,-255,0,-255,0,0,0,0,26.5,12.97,3.43705,9.53295
639,90,172,3.65244,34.8821,0,325,0,0.00000000,0.00000000,0,0,-255,0,-255,0,0,0,0,26.5,12.97,3.43705,9.53295
640,88,172,3.6623,34.9348,0,326,0,0.00000000,0.00000000,0,0,-255,0,-255,0,0,0,0,26.6,12.97,3.45002,9.51998
641,90,172,3.67213,34.9879,0,326,0,0.00000000,0.00000000,0,0,-255,0,-255,0,0,0,0,26.6,12.97,3.45002,9.51998
642,91,172,3.68201,35.0234,0,322,0,0.00000000,0.00000000,0,0,-255,0,-255,0,0,0,0,26.2,12.96,3.39552,9.56448
643,90,174,3.69192,35.0594,0,327,0,0.00000000,0.00000000,0,0,-255,0,-255,0,0,0,0,26.2,12.96,3.39552,9.56448
644,91,175,3.7018,35.093,0,323,0,0.00000000,0.00000000,0,0,-255,0,-255,0,0,0,0,25.8,12.96,3.34368,9.61632
645,90,174,3.7117,35.1164,0,324,0,0.00000000,0.00000000,0,0,-255,0,-255,0,0,0,0,25.8,12.96,3.34368,9.61632
646,91,174,3.7216,35.142,0,324,0,0.00000000,0.00000000,0,0,-255,0,-255,0,0,0,0,25.4,12.96,3.29184,9.66816
647,90,174,3.73154,35.161,0,325,0,0.00000000,0.00000000,0,0,-255,0,-255,0,0,0,0,25.4,12.96,3.29184,9.66816
648,90,175,3.74146,35.1843,0,325,0,0.00000000,0.00000000,0,0,-255,0,-255,0,0,0,0,25,12.96,3.24,9.72
649,90,175,3.74939,35.1971,0,324,0,0.00000000,0.00000000,0,0,-255,0,-255,0,0,0,0,25,12.96,3.24,9.72
650,89,176,3.75934,35.2124,0,323,0,0.00000000,0.00000000,0,0,-255,0,-255,0,0,0,0,24.5,12.96,3.1752,9.7848
651,90,176,3.76927,35.221,0,325,0,0.00000000,0.00000000,0,0,-255,0,-255,0,0,0,0,24.5,12.96,3.1752,9.7848
652,90,175,3.77922,35.2367,0,325,0,0.00000000,0.00000000,0,0,-255,0,-255,0,0,0,0,24.5,12.96,3.1752,9.7848
653,91,176,3.78915,35.2505,0,325,0,0.00000000,0.00000000,0,0,-255,0,-255,0,0,0,0,24.5,12.96,3.1752,9.7848
654,91,176,3.79908,35.2611,0,325,0,0.00000000,0.00000000,0,0,-255,0,-255,0,0,0,0,24.5,12.96,3.1752,9.7848
655,90,175,3.80906,35.2727,0,326,0,0.00000000,0.00000000,0,0,-255,0,-255,0,0,0,0,24,12.96,3.1104,9.8496
656,92,177,3.81898,35.2814,0,324,0,0.00000000,0.00000000,0,0,-255,0,-255,0,0,0,0,23.7,12.96,3.07152,9.88848
657,92,176,3.82892,35.2855,0,325,0,0.00000000,0.00000000,0,0,-255,0,-255,0,0,0,0,23.7,12.96,3.07152,9.88848
658,93,176,3.83888,35.2951,0,324,0,0.00000000,0.00000000,0,0,-255,0,-255,0,0,0,0,23.5,12.96,3.0456,9.9144
659,92,176,3.84885,35.298,0,324,0,0.00000000,0.00000000,0,0,-255,0,-255,0,0,0,0,23.5,12.96,3.0456,9.9144
660,91,176,3.85882,35.3035,0,323,0,0.00000000,0.00000000,0,0,-255,0,-255,0,0,0,0,23.3,12.96,3.01968,9.94032
661,91,177,3.86879,35.3002,0,327,0,0.00000000,0.00000000,0,0,-255,0,-255,0,0,0,0,23.3,12.96,3.01968,9.94032
662,90,177,3.87677,35.3408,0,344,0,0.00000000,0.00000000,0,0,-255,0,-255,0,0,0,0,23,12.96,2.9808,9.9792
663,91,177,3.88675,35.4504,0,351,0,0.00000000,0.00000000,0,0,-255,0,-255,0,0,0,0,23,12.96,2.9808,9.9792
664,92,177,3.89674,35.5528,0,350,0,0.00000000,0.00000000,0,0,-255,0,-255,0,0,0,0,23,12.97,2.9831,9.9869
665,92,177,3.90677,35.6367,0,349,0,0.00000000,0.00000000,0,0,-255,0,-255,0,0,0,0,23,12.97,2.9831,9.9869
666,91,177,3.91685,35.7115,0,349,0,0.00000000,0.00000000,0,0,-255,0,-255,0,0,0,0,23.1,12.97,2.99607,9.97393
667,91,177,3.92692,35.7767,0,349,0,0.00000000,0.00000000,0,0,-255,0,-255,0,0,0,0,23.1,12.97,2.99607,9.97393
668,91,178,3.93706,35.8323,0,348,0,0.00000000,0.00000000,0,0,-255,0,-255,0,0,0,0,22.5,12.98,2.9205,10.0595
669,91,178,3.94718,35.8856,0,350,0,0.00000000,0.00000000,0,0,-255,0,-255,0,0,0,0,22.5,12.98,2.9205,10.0595
670,90,178,3.95728,35.9331,0,348,0,0.00000000,0.00000000,0,0,-255,0,-255,0,0,0,0,22.1,12.98,2.86858,10.1114
671,90,178,3.96744,35.9746,0,350,0,0.00000000,0.00000000,0,0,-255,0,-255,0,0,0,0,22.1,12.98,2.86858,10.1114
672,91,178,3.97759,36.0156,0,350,0,0.00000000,0.00000000,0,0,-255,0,-255,0,0,0,0,21.9,12.98,2.84262,10.1374
673,91,179,3.98778,36.0527,0,350,0,0.00000000,0.00000000,0,0,-255,0,-255,0,0,0,0,21.9,12.98,2.84262,10.1374
674,92,179,3.99793,36.0859,0,351,0,0.00000000,0.00000000,0,0,-255,0,-255,0,0,0,0,21.3,12.97,2.76261,10.2074
675,92,179,4.00607,36.1063,0,349,0,0.00000000,0.00000000,0,0,-255,0,-255,0,0,0,0,21.3,12.97,2.76261,10.2074
676,91,179,4.01627,36.1274,0,350,0,0.00000000,0.00000000,0,0,-255,0,-255,0,0,0,0,21.3,12.97,2.76261,10.2074
677,92,179,4.02645,36.1478,0,351,0,0.00000000,0.00000000,0,0,-255,0,-255,0,0,0,0,21,12.96,2.7216,10.2384
678,92,179,4.03665,36.1669,0,349,0,0.00000000,0.00000000,0,0,-255,0,-255,0,0,0,0,21,12.96,2.7216,10.2384
679,92,180,4.04687,36.1835,0,350,0,0.00000000,0.00000000,0,0,-255,0,-255,0,0,0,0,21,12.96,2.7216,10.2384
680,91,180,4.0571,36.1977,0,350,0,0.00000000,0.00000000,0,0,-255,0,-255,0,0,0,0,21.1,12.95,2.73245,10.2175
681,91,180,4.06729,36.2058,0,348,0,0.00000000,0.00000000,0,0,-255,0,-255,0,0,0,0,21.1,12.95,2.73245,10.2175
682,91,181,4.07751,36.2133,0,350,0,0.00000000,0.00000000,0,0,-255,0,-255,0,0,0,0,20.6,12.96,2.66976,10.2902
683,91,181,4.08774,36.2275,0,350,0,0.00000000,0.00000000,0,0,-255,0,-255,0,0,0,0,20.6,12.96,2.66976,10.2902
684,91,181,4.09795,36.2362,0,349,0,0.00000000,0.00000000,0,0,-255,0,-255,0,0,0,0,20.7,12.96,2.68272,10.2773
685,90,181,4.10816,36.2418,0,349,0,0.00000000,0.00000000,0,0,-255,0,-255,0,0,0,0,20.7,12.96,2.68272,10.2773
686,91,181,4.11842,36.2472,0,350,0,0.00000000,0.00000000,0,0,-255,0,-255,0,0,0,0,20,12.97,2.594,10.376
687,91,181,4.12864,36.2545,0,349,0,0.00000000,0.00000000,0,0,-255,0,-255,0,0,0,0,20,12.97,2.594,10.376
688,91,181,4.13682,36.258,0,350,0,0.00000000,0.00000000,0,0,-255,0,-255,0,0,0,0,19.8,12.98,2.57004,10.41
689,91,181,4.14703,36.2644,0,350,0,0.00000000,0.00000000,0,0,-255,0,-255,0,0,0,0,19.8,12.98,2.57004,10.41
690,92,182,4.15728,36.2742,0,351,0,0.00000000,0.00000000,0,0,-255,0,-255,0,0,0,0,19.4,12.99,2.52006,10.4699
691,94,182,4.16749,36.2787,0,349,0,0.00000000,0.00000000,0,0,-255,0,-255,0,0,0,0,19.4,12.99,2.52006,10.4699
692,92,182,4.17775,36.3154,0,372,0,0.00000000,0.00000000,0,0,-255,0,-255,0,0,0,0,19.4,12.99,2.52006,10.4699
693,92,182,4.188,36.4127,0,375,0,0.00000000,0.00000000,0,0,-255,0,-255,0,0,0,0,19.4,12.99,2.52006,10.4699
694,91,182,4.1983,36.5089,0,376,0,0.00000000,0.00000000,0,0,-255,0,-255,0,0,0,0,19.3,12.99,2.50707,10.4829
695,91,182,4.20861,36.5952,0,373,0,0.00000000,0.00000000,0,0,-255,0,-255,0,0,0,0,19.3,12.99,2.50707,10.4829
696,90,182,4.21893,36.6607,0,373,0,0.00000000,0.00000000,0,0,-255,0,-255,0,0,0,0,19.9,12.98,2.58302,10.397
697,90,182,4.22929,36.7243,0,376,0,0.00000000,0.00000000,0,0,-255,0,-255,0,0,0,0,19.9,12.98,2.58302,10.397
698,90,182,4.23964,36.7911,0,377,0,0.00000000,0.00000000,0,0,-255,0,-255,0,0,0,0,19.5,12.97,2.52915,10.4409
699,92,182,4.25006,36.846,0,376,0,0.00000000,0.00000000,0,0,-255,0,-255,0,0,0,0,19.5,12.97,2.52915,10.4409
700,93,182,4.26044,36.8925,0,375,0,0.00000000,0.00000000,0,0,-255,0,-255,0,0,0,0,19,12.97,2.4643,10.5057
701,93,182,4.26878,36.9249,0,375,0,0.00000000,0.00000000,0,0,-255,0,-255,0,0,0,0,19,12.97,2.4643,10.5057
702,94,183,4.27918,36.9589,0,376,0,0.00000000,0.00000000,0,0,-255,0,-255,0,0,0,0,18.9,12.97,2.45133,10.5187
703,94,183,4.28961,36.9895,0,373,0,0.00000000,0.00000000,0,0,-255,0,-255,0,0,0,0,18.9,12.97,2.45133,10.5187
704,93,183,4.30005,37.0113,0,375,0,0.00000000,0.00000000,0,0,-255,0,-255,0,0,0,0,19.1,12.98,2.47918,10.5008
705,93,183,4.31053,37.0359,0,374,0,0.00000000,0.00000000,0,0,-255,0,-255,0,0,0,0,19.1,12.98,2.47918,10.5008
706,92,183,4.32098,37.061,0,375,0,0.00000000,0.00000000,0,0,-255,0,-255,0,0,0,0,19.2,12.98,2.49216,10.4878
707,93,183,4.33142,37.0754,0,374,0,0.00000000,0.00000000,0,0,-255,0,-255,0,0,0,0,19.2,12.98,2.49216,10.4878
708,92,183,4.34189,37.0899,0,375,0,0.00000000,0.00000000,0,0,-255,0,-255,0,0,0,0,19.8,13,2.574,10.426
709,92,184,4.35234,37.1056,0,375,0,0.00000000,0.00000000,0,0,-255,0,-255,0,0,0,0,19.8,13,2.574,10.426
710,93,184,4.36283,37.1195,0,375,0,0.00000000,0.00000000,0,0,-255,0,-255,0,0,0,0,20,13,2.6,10.4
711,92,184,4.37328,37.1287,0,374,0,0.00000000,0.00000000,0,0,-255,0,-255,0,0,0,0,20,13,2.6,10.4
712,92,184,4.38374,37.1366,0,374,0,0.00000000,0.00000000,0,0,-255,0,-255,0,0,0,0,19.9,12.99,2.58501,10.405
713,92,183,4.39423,37.1388,0,373,0,0.00000000,0.00000000,0,0,-255,0,-255,0,0,0,0,19.9,12.99,2.58501,10.405
714,91,184,4.40264,37.1414,0,374,0,0.00000000,0.00000000,0,0,-255,0,-255,0,0,0,0,19.3,12.98,2.50514,10.4749
715,91,184,4.4131,37.1473,0,375,0,0.00000000,0.00000000,0,0,-255,0,-255,0,0,0,0,19.3,12.98,2.50514,10.4749
716,90,184,4.42359,37.1571,0,375,0,0.00000000,0.00000000,0,0,-255,0,-255,0,0,0,0,18.5,12.98,2.4013,10.5787
717,91,184,4.43406,37.1615,0,377,0,0.00000000,0.00000000,0,0,-255,0,-255,0,0,0,0,18.5,12.98,2.4013,10.5787
718,92,184,4.44455,37.1826,0,378,0,0.00000000,0.00000000,0,0,-255,0,-255,0,0,0,0,17.5,12.97,2.26975,10.7003
719,93,184,4.45504,37.1838,0,372,0,0.00000000,0.00000000,0,0,-255,0,-255,0,0,0,0,17.5,12.97,2.26975,10.7003
720,92,184,4.46554,37.1815,0,377,0,0.00000000,0.00000000,0,0,-255,0,-255,0,0,0,0,17,12.97,2.2049,10.7651
721,91,184,4.47605,37.1855,0,373,0,0.00000000,0.00000000,0,0,-255,0,-255,0,0,0,0,17,12.97,2.2049,10.7651
722,91,184,4.48654,37.2126,0,391,0,0.00000000,0.00000000,0,0,-255,0,-255,0,0,0,0,16.6,12.98,2.15468,10.8253
723,91,184,4.49704,37.3026,0,397,0,0.00000000,0.00000000,0,0,-255,0,-255,0,0,0,0,16.6,12.98,2.15468,10.8253
724,91,184,4.50758,37.4015,0,400,0,0.00000000,0.00000000,0,0,-255,0,-255,0,0,0,0,16.9,12.98,2.19362,10.7864
725,91,184,4.51815,37.4921,0,402,0,0.00000000,0.00000000,0,0,-255,0,-255,0,0,0,0,16.9,12.98,2.19362,10.7864
726,92,185,4.52872,37.5607,0,398,0,0.00000000,0.00000000,0,0,-255,0,-255,0,0,0,0,17,12.99,2.2083,10.7817
727,92,185,4.53718,37.6066,0,400,0,0.00000000,0.00000000,0,0,-255,0,-255,0,0,0,0,17,12.99,2.2083,10.7817
728,92,186,4.54782,37.671,0,402,0,0.00000000,0.00000000,0,0,-255,0,-255,0,0,0,0,17.8,13,2.314,10.686
729,93,186,4.55847,37.7256,0,398,0,0.00000000,0.00000000,0,0,-255,0,-255,0,0,0,0,17.8,13,2.314,10.686
730,92,186,4.5691,37.7656,0,400,0,0.00000000,0.00000000,0,0,-255,0,-255,0,0,0,0,18.4,12.99,2.39016,10.5998
731,91,186,4.57978,37.8073,0,398,0,0.00000000,0.00000000,0,0,-255,0,-255,0,0,0,0,18.4,12.99,2.39016,10.5998
732,93,186,4.59044,37.8332,0,398,0,0.00000000,0.00000000,0,0,-255,0,-255,0,0,0,0,18.6,12.98,2.41428,10.5657
733,92,186,4.60111,37.8577,0,398,0,0.00000000,0.00000000,0,0,-255,0,-255,0,0,0,0,18.6,12.98,2.41428,10.5657
734,92,186,4.61182,37.8776,0,398,0,0.00000000,0.00000000,0,0,-255,0,-255,0,0,0,0,18.5,12.98,2.4013,10.5787
735,91,186,4.62251,37.9011,0,400,0,0.00000000,0.00000000,0,0,-255,0,-255,0,0,0,0,18.5,12.98,2.4013,10.5787
736,90,186,4.63318,37.924,0,400,0,0.00000000,0.00000000,0,0,-255,0,-255,0,0,0,0,18.5,12.97,2.39945,10.5706
737,91,186,4.64387,37.945,0,402,0,0.00000000,0.00000000,0,0,-255,0,-255,0,0,0,0,18.5,12.97,2.39945,10.5706
738,92,187,4.65457,37.9671,0,401,0,0.00000000,0.00000000,0,0,-255,0,-255,0,0,0,0,18,12.97,2.3346,10.6354
739,92,187,4.66533,37.9784,0,400,0,0.00000000,0.00000000,0,0,-255,0,-255,0,0,0,0,18,12.97,2.3346,10.6354
740,92,187,4.67389,37.9919,0,398,0,0.00000000,0.00000000,0,0,-255,0,-255,0,0,0,0,17.5,12.97,2.26975,10.7003
741,91,188,4.68458,37.9965,0,400,0,0.00000000,0.00000000,0,0,-255,0,-255,0,0,0,0,17.5,12.97,2.26975,10.7003
742,92,188,4.69533,38.008,0,400,0,0.00000000,0.00000000,0,0,-255,0,-255,0,0,0,0,16.9,12.98,2.19362,10.7864
743,92,188,4.70602,38.0119,0,399,0,0.00000000,0.00000000,0,0,-255,0,-255,0,0,0,0,16.9,12.98,2.19362,10.7864
744,92,188,4.71677,38.0215,0,401,0,0.00000000,0.00000000,0,0,-255,0,-255,0,0,0,0,16.9,12.98,2.19362,10.7864
745,92,188,4.72747,38.0212,0,398,0,0.00000000,0.00000000,0,0,-255,0,-255,0,0,0,0,16.2,12.99,2.10438,10.8856
746,91,188,4.7382,38.0231,0,402,0,0.00000000,0.00000000,0,0,-255,0,-255,0,0,0,0,15.4,12.99,2.00046,10.9895
747,93,188,4.74893,38.0203,0,394,0,0.00000000,0.00000000,0,0,-255,0,-255,0,0,0,0,15.4,12.99,2.00046,10.9895
748,93,188,4.75966,38.0234,0,400,0,0.00000000,0.00000000,0,0,-255,0,-255,0,0,0,0,15,12.99,1.9485,11.0415
749,93,187,4.77039,38.0315,0,400,0,0.00000000,0.00000000,0,0,-255,0,-255,0,0,0,0,15,12.99,1.9485,11.0415
750,93,188,4.78114,38.0387,0,400,0,0.00000000,0.00000000,0,0,-255,0,-255,0,0,0,0,14.4,12.99,1.87056,11.1194
751,92,188,4.79189,38.0405,0,399,0,0.00000000,0.00000000,0,0,-255,0,-255,0,0,0,0,14.4,12.99,1.87056,11.1194
752,93,188,4.80261,38.0905,0,418,0,0.00000000,0.00000000,0,0,-255,0,-255,0,0,0,0,14.5,12.98,1.8821,11.0979
753,92,189,4.81119,38.172,0,425,0,0.00000000,0.00000000,0,0,-255,0,-255,0,0,0,0,14.5,12.98,1.8821,11.0979
754,92,189,4.822,38.2631,0,424,0,0.00000000,0.00000000,0,0,-255,0,-255,0,0,0,0,14.2,12.98,1.84316,11.1368
755,92,189,4.83277,38.3368,0,424,0,0.00000000,0.00000000,0,0,-255,0,-255,0,0,0,0,14.2,12.98,1.84316,11.1368
756,91,189,4.8436,38.4077,0,427,0,0.00000000,0.00000000,0,0,-255,0,-255,0,0,0,0,14.6,12.98,1.89508,11.0849
757,92,189,4.85448,38.4683,0,424,0,0.00000000,0.00000000,0,0,-255,0,-255,0,0,0,0,14.6,12.98,1.89508,11.0849
758,92,189,4.86532,38.5131,0,423,0,0.00000000,0.00000000,0,0,-255,0,-255,0,0,0,0,14.2,12.98,1.84316,11.1368
759,94,189,4.87619,38.5554,0,423,0,0.00000000,0.00000000,0,0,-255,0,-255,0,0,0,0,14.2,12.98,1.84316,11.1368
760,94,189,4.88705,38.5924,0,423,0,0.00000000,0.00000000,0,0,-255,0,-255,0,0,0,0,14.3,12.99,1.85757,11.1324
761,94,190,4.89795,38.6292,0,425,0,0.00000000,0.00000000,0,0,-255,0,-255,0,0,0,0,14.3,12.99,1.85757,11.1324
762,94,190,4.90889,38.6654,0,425,0,0.00000000,0.00000000,0,0,-255,0,-255,0,0,0,0,13.7,12.99,1.77963,11.2104
763,93,189,4.91978,38.6982,0,426,0,0.00000000,0.00000000,0,0,-255,0,-255,0,0,0,0,13.7,12.99,1.77963,11.2104
764,94,189,4.93073,38.7274,0,424,0,0.00000000,0.00000000,0,0,-255,0,-255,0,0,0,0,13.9,12.99,1.80561,11.1844
765,94,189,4.94165,38.7503,0,425,0,0.00000000,0.00000000,0,0,-255,0,-255,0,0,0,0,13.9,12.99,1.80561,11.1844
766,93,189,4.95036,38.7618,0,423,0,0.00000000,0.00000000,0,0,-255,0,-255,0,0,0,0,13.4,12.98,1.73932,11.2407
767,93,190,4.96133,38.7769,0,425,0,0.00000000,0.00000000,0,0,-255,0,-255,0,0,0,0,13.4,12.98,1.73932,11.2407
768,93,190,4.97228,38.7949,0,425,0,0.00000000,0.00000000,0,0,-255,0,-255,0,0,0,0,13.3,12.98,1.72634,11.2537
769,92,190,4.9832,38.807,0,424,0,0.00000000,0.00000000,0,0,-255,0,-255,0,0,0,0,13.3,12.98,1.72634,11.2537
770,92,191,4.99415,38.8189,0,424,0,0.00000000,0.00000000,0,0,-255,0,-255,0,0,0,0,13,12.98,1.6874,11.2926
771,93,190,5.00509,38.8232,0,423,0,0.00000000,0.00000000,0,0,-255,0,-255,0,0,0,0,13,12.98,1.6874,11.2926
772,92,190,5.0161,38.8376,0,424,0,0.00000000,0.00000000,0,0,-255,0,-255,0,0,0,0,13.1,12.98,1.70038,11.2796
773,92,191,5.02703,38.8441,0,424,0,0.00000000,0.00000000,0,0,-255,0,-255,0,0,0,0,13.1,12.98,1.70038,11.2796
774,92,191,5.03798,38.8513,0,424,0,0.00000000,0.00000000,0,0,-255,0,-255,0,0,0,0,12.8,12.99,1.66272,11.3273
775,92,191,5.04893,38.8627,0,428,0,0.00000000,0.00000000,0,0,-255,0,-255,0,0,0,0,12.8,12.99,1.66272,11.3273
776,92,191,5.05991,38.8714,0,422,0,0.00000000,0.00000000,0,0,-255,0,-255,0,0,0,0,12.8,12.99,1.66272,11.3273
777,92,191,5.07087,38.8683,0,424,0,0.00000000,0.00000000,0,0,-255,0,-255,0,0,0,0,12.8,12.99,1.66272,11.3273
778,92,191,5.08186,38.8723,0,425,0,0.00000000,0.00000000,0,0,-255,0,-255,0,0,0,0,13.1,12.99,1.70169,11.2883
779,92,191,5.0906,38.881,0,426,0,0.00000000,0.00000000,0,0,-255,0,-255,0,0,0,0,13.1,12.99,1.70169,11.2883
780,92,191,5.10161,38.8796,0,422,0,0.00000000,0.00000000,0,0,-255,0,-255,0,0,0,0,13.1,12.98,1.70038,11.2796
781,92,191,5.11254,38.8763,0,426,0,0.00000000,0.00000000,0,0,-255,0,-255,0,0,0,0,13.1,12.98,1.70038,11.2796
782,91,191,5.12351,38.9205,0,443,0,0.00000000,0.00000000,0,0,-255,0,-255,0,0,0,0,13,12.98,1.6874,11.2926
783,92,191,5.13453,39.0087,0,448,0,0.00000000,0.00000000,0,0,-255,0,-255,0,0,0,0,13,12.98,1.6874,11.2926
784,91,191,5.14553,39.0976,0,453,0,0.00000000,0.00000000,0,0,-255,0,-255,0,0,0,0,12.9,12.98,1.67442,11.3056
785,91,191,5.15657,39.1815,0,450,0,0.00000000,0.00000000,0,0,-255,0,-255,0,0,0,0,12.9,12.98,1.67442,11.3056
786,91,191,5.16764,39.2501,0,450,0,0.00000000,0.00000000,0,0,-255,0,-255,0,0,0,0,12.8,12.98,1.66144,11.3186
787,93,192,5.17872,39.3108,0,452,0,0.00000000,0.00000000,0,0,-255,0,-255,0,0,0,0,12.8,12.98,1.66144,11.3186
788,94,192,5.18983,39.366,0,448,0,0.00000000,0.00000000,0,0,-255,0,-255,0,0,0,0,12.5,12.98,1.6225,11.3575
789,94,192,5.20092,39.3959,0,447,0,0.00000000,0.00000000,0,0,-255,0,-255,0,0,0,0,12.5,12.98,1.6225,11.3575
790,92,192,5.21203,39.426,0,446,0,0.00000000,0.00000000,0,0,-255,0,-255,0,0,0,0,12.5,12.98,1.6225,11.3575
791,90,192,5.22315,39.4473,0,448,0,0.00000000,0.00000000,0,0,-255,0,-255,0,0,0,0,12.5,12.98,1.6225,11.3575
792,90,192,5.23209,39.4697,0,450,0,0.00000000,0.00000000,0,0,-255,0,-255,0,0,0,0,12.4,12.98,1.60952,11.3705
793,90,192,5.24324,39.5079,0,456,0,0.00000000,0.00000000,0,0,-255,0,-255,0,0,0,0,12.4,12.98,1.60952,11.3705
794,90,193,5.25439,39.5546,0,451,0,0.00000000,0.00000000,0,0,-255,0,-255,0,0,0,0,12.4,12.99,1.61076,11.3792
795,93,193,5.26556,39.5619,0,445,0,0.00000000,0.00000000,0,0,-255,0,-255,0,0,0,0,12.4,12.99,1.61076,11.3792
796,93,193,5.27669,39.5696,0,451,0,0.00000000,0.00000000,0,0,-255,0,-255,0,0,0,0,12.4,12.98,1.60952,11.3705
797,90,193,5.28786,39.5911,0,451,0,0.00000000,0.00000000,0,0,-255,0,-255,0,0,0,0,12.4,12.98,1.60952,11.3705
798,92,193,5.29902,39.6062,0,448,0,0.00000000,0.00000000,0,0,-255,0,-255,0,0,0,0,12.4,12.98,1.60952,11.3705
799,92,193,5.31021,39.6161,0,450,0,0.00000000,0.00000000,0,0,-255,0,-255,0,0,0,0,12.4,12.98,1.60952,11.3705
800,92,193,5.3214,39.6294,0,450,0,0.00000000,0.00000000,0,0,-255,0,-255,0,0,0,0,12.3,12.98,1.59654,11.3835
801,90,193,5.33255,39.6318,0,447,0,0.00000000,0.00000000,0,0,-255,0,-255,0,0,0,0,12.3,12.98,1.59654,11.3835
802,90,193,5.34373,39.6432,0,449,0,0.00000000,0.00000000,0,0,-255,0,-255,0,0,0,0,12,12.97,1.5564,11.4136
803,90,193,5.35492,39.6495,0,450,0,0.00000000,0.00000000,0,0,-255,0,-255,0,0,0,0,12,12.97,1.5564,11.4136
804,90,193,5.36613,39.6611,0,452,0,0.00000000,0.00000000,0,0,-255,0,-255,0,0,0,0,11.9,12.97,1.54343,11.4266
805,90,193,5.37506,39.6724,0,449,0,0.00000000,0.00000000,0,0,-255,0,-255,0,0,0,0,11.9,12.97,1.54343,11.4266
806,91,193,5.38629,39.6719,0,448,0,0.00000000,0.00000000,0,0,-255,0,-255,0,0,0,0,11.9,12.97,1.54343,11.4266
807,90,193,5.39746,39.6779,0,451,0,0.00000000,0.00000000,0,0,-255,0,-255,0,0,0,0,11.9,12.97,1.54343,11.4266
808,91,193,5.40867,39.6759,0,448,0,0.00000000,0.00000000,0,0,-255,0,-255,0,0,0,0,11.5,12.98,1.4927,11.4873
809,91,193,5.41984,39.6865,0,452,0,0.00000000,0.00000000,0,0,-255,0,-255,0,0,0,0,11.5,12.98,1.4927,11.4873
810,91,194,5.43103,39.6929,0,451,0,0.00000000,0.00000000,0,0,-255,0,-255,0,0,0,0,11.2,12.98,1.45376,11.5262
811,92,194,5.44223,39.6946,0,450,0,0.00000000,0.00000000,0,0,-255,0,-255,0,0,0,0,11.2,12.98,1.45376,11.5262
812,92,194,5.45344,39.7318,0,466,0,0.00000000,0.00000000,0,0,-255,0,-255,0,0,0,0,11.5,12.98,1.4927,11.4873
813,93,194,5.46469,39.8208,0,475,0,0.00000000,0.00000000,0,0,-255,0,-255,0,0,0,0,11.5,12.98,1.4927,11.4873
814,94,194,5.47594,39.9152,0,473,0,0.00000000,0.00000000,0,0,-255,0,-255,0,0,0,0,11.7,12.98,1.51866,11.4613
815,95,194,5.48718,39.9762,0,472,0,0.00000000,0.00000000,0,0,-255,0,-255,0,0,0,0,11.7,12.98,1.51866,11.4613
816,94,194,5.49849,40.0314,0,475,0,0.00000000,0.00000000,0,0,-255,0,-255,0,0,0,0,11.6,12.98,1.50568,11.4743
817,92,195,5.50978,40.0938,0,475,0,0.00000000,0.00000000,0,0,-255,0,-255,0,0,0,0,11.6,12.98,1.50568,11.4743
818,93,195,5.51884,40.1284,0,469,0,0.00000000,0.00000000,0,0,-255,0,-255,0,0,0,0,11.9,12.98,1.54462,11.4354
819,92,195,5.53016,40.1589,0,474,0,0.00000000,0.00000000,0,0,-255,0,-255,0,0,0,0,11.9,12.98,1.54462,11.4354
820,91,195,5.54151,40.2127,0,479,0,0.00000000,0.00000000,0,0,-255,0,-255,0,0,0,0,12.2,12.98,1.58356,11.3964
821,93,195,5.55282,40.2648,0,475,0,0.00000000,0.00000000,0,0,-255,0,-255,0,0,0,0,12.2,12.98,1.58356,11.3964
822,94,195,5.56422,40.2841,0,476,0,0.00000000,0.00000000,0,0,-255,0,-255,0,0,0,0,11.8,12.98,1.53164,11.4484
823,95,195,5.57558,40.3171,0,477,0,0.00000000,0.00000000,0,0,-255,0,-255,0,0,0,0,11.8,12.98,1.53164,11.4484
824,96,195,5.58696,40.3395,0,474,0,0.00000000,0.00000000,0,0,-255,0,-255,0,0,0,0,11.4,12.98,1.47972,11.5003
825,96,195,5.59834,40.3542,0,474,0,0.00000000,0.00000000,0,0,-255,0,-255,0,0,0,0,11.4,12.98,1.47972,11.5003
826,96,195,5.6097,40.3717,0,476,0,0.00000000,0.00000000,0,0,-255,0,-255,0,0,0,0,11.4,12.98,1.47972,11.5003
827,95,196,5.6211,40.384,0,471,0,0.00000000,0.00000000,0,0,-255,0,-255,0,0,0,0,11.4,12.98,1.47972,11.5003
828,95,196,5.63248,40.3838,0,473,0,0.00000000,0.00000000,0,0,-255,0,-255,0,0,0,0,11.3,12.98,1.46674,11.5133
829,93,195,5.64391,40.3954,0,477,0,0.00000000,0.00000000,0,0,-255,0,-255,0,0,0,0,11.3,12.98,1.46674,11.5133
830,93,196,5.65531,40.4093,0,474,0,0.00000000,0.00000000,0,0,-255,0,-255,0,0,0,0,11.1,12.98,1.44078,11.5392
831,94,196,5.66441,40.4147,0,474,0,0.00000000,0.00000000,0,0,-255,0,-255,0,0,0,0,11.1,12.98,1.44078,11.5392
832,93,196,5.67581,40.4288,0,477,0,0.00000000,0.00000000,0,0,-255,0,-255,0,0,0,0,11.1,12.98,1.44078,11.5392
833,94,196,5.68724,40.4386,0,474,0,0.00000000,0.00000000,0,0,-255,0,-255,0,0,0,0,11.1,12.98,1.44078,11.5392
834,94,196,5.69863,40.44,0,474,0,0.00000000,0.00000000,0,0,-255,0,-255,0,0,0,0,11.3,12.98,1.46674,11.5133
835,93,196,5.71009,40.4364,0,472,0,0.00000000,0.00000000,0,0,-255,0,-255,0,0,0,0,11.3,12.98,1.46674,11.5133
836,92,196,5.72147,40.4385,0,475,0,0.00000000,0.00000000,0,0,-255,0,-255,0,0,0,0,11,12.98,1.4278,11.5522
837,90,196,5.73285,40.4425,0,474,0,0.00000000,0.00000000,0,0,-255,0,-255,0,0,0,0,11,12.98,1.4278,11.5522
838,91,197,5.74427,40.4453,0,477,0,0.00000000,0.00000000,0,0,-255,0,-255,0,0,0,0,10.5,12.98,1.3629,11.6171
839,91,197,5.7557,40.4568,0,476,0,0.00000000,0.00000000,0,0,-255,0,-255,0,0,0,0,10.5,12.98,1.3629,11.6171
840,91,197,5.76709,40.4588,0,474,0,0.00000000,0.00000000,0,0,-255,0,-255,0,0,0,0,10.3,12.98,1.33694,11.6431
841,91,197,5.7785,40.4603,0,477,0,0.00000000,0.00000000,0,0,-255,0,-255,0,0,0,0,10.3,12.98,1.33694,11.6431
842,91,196,5.78992,40.4813,0,481,0,0.00000000,0.00000000,0,0,-255,0,-255,0,0,0,0,10.5,12.98,1.3629,11.6171
843,94,196,5.80135,40.5403,0,496,0,0.00000000,0.00000000,0,0,-255,0,-255,0,0,0,0,10.5,12.98,1.3629,11.6171
844,94,197,5.8105,40.6068,0,498,0,0.00000000,0.00000000,0,0,-255,0,-255,0,0,0,0,10.6,12.98,1.37588,11.6041
845,93,197,5.822,40.6858,0,500,0,0.00000000,0.00000000,0,0,-255,0,-255,0,0,0,0,10.6,12.98,1.37588,11.6041
846,93,197,5.83348,40.7566,0,500,0,0.00000000,0.00000000,0,0,-255,0,-255,0,0,0,0,10.7,12.97,1.38779,11.5822
847,92,197,5.84498,40.8175,0,500,0,0.00000000,0.00000000,0,0,-255,0,-255,0,0,0,0,10.7,12.97,1.38779,11.5822
848,94,198,5.85649,40.8712,0,500,0,0.00000000,0.00000000,0,0,-255,0,-255,0,0,0,0,10.9,12.98,1.41482,11.5652
849,93,198,5.86808,40.9141,0,499,0,0.00000000,0.00000000,0,0,-255,0,-255,0,0,0,0,10.9,12.98,1.41482,11.5652
850,93,199,5.87961,40.9512,0,498,0,0.00000000,0.00000000,0,0,-255,0,-255,0,0,0,0,10.8,12.98,1.40184,11.5782
851,92,199,5.89114,40.9753,0,496,0,0.00000000,0.00000000,0,0,-255,0,-255,0,0,0,0,10.8,12.98,1.40184,11.5782
852,89,199,5.90271,40.994,0,499,0,0.00000000,0.00000000,0,0,-255,0,-255,0,0,0,0,10.6,12.98,1.37588,11.6041
853,89,199,5.91427,41.0274,0,503,0,0.00000000,0.00000000,0,0,-255,0,-255,0,0,0,0,10.6,12.98,1.37588,11.6041
854,90,199,5.92584,41.065,0,502,0,0.00000000,0.00000000,0,0,-255,0,-255,0,0,0,0,10.4,12.98,1.34992,11.6301
855,91,200,5.93746,41.0867,0,500,0,0.00000000,0.00000000,0,0,-255,0,-255,0,0,0,0,10.4,12.98,1.34992,11.6301
856,92,200,5.94904,41.1057,0,500,0,0.00000000,0.00000000,0,0,-255,0,-255,0,0,0,0,10.5,12.99,1.36395,11.626
857,91,200,5.95833,41.1098,0,496,0,0.00000000,0.00000000,0,0,-255,0,-255,0,0,0,0,10.5,12.99,1.36395,11.626
858,91,200,5.96993,41.1145,0,498,0,0.00000000,0.00000000,0,0,-255,0,-255,0,0,0,0,10.5,12.98,1.3629,11.6171
859,91,200,5.98152,41.1278,0,500,0,0.00000000,0.00000000,0,0,-255,0,-255,0,0,0,0,10.5,12.98,1.3629,11.6171
860,91,200,5.99311,41.1482,0,502,0,0.00000000,0.00000000,0,0,-255,0,-255,0,0,0,0,10.5,12.98,1.3629,11.6171
861,92,199,6.00472,41.1536,0,496,0,0.00000000,0.00000000,0,0,-255,0,-255,0,0,0,0,10.5,12.98,1.3629,11.6171
862,89,200,6.01633,41.1477,0,495,0,0.00000000,0.00000000,0,0,-255,0,-255,0,0,0,0,10.5,12.98,1.3629,11.6171
863,89,200,6.02793,41.1444,0,495,0,0.00000000,0.00000000,0,0,-255,0,-255,0,0,0,0,10.6,12.97,1.37482,11.5952
864,85,200,6.03954,41.1149,0,484,0,0.00000000,0.00000000,0,0,-255,0,-255,0,0,0,0,10.6,12.97,1.37482,11.5952
865,80,201,6.05114,41.0848,0,493,0,0.00000000,0.00000000,0,0,-255,0,-255,0,0,0,0,10.6,12.97,1.37482,11.5952
866,76,200,6.06271,41.0472,0,482,0,0.00000000,0.00000000,0,0,-255,0,-255,0,0,0,0,10.6,12.96,1.37376,11.5862
867,71,200,6.0743,41.0317,0,499,0,0.00000000,0.00000000,0,0,-255,0,-255,0,0,0,0,10.6,12.96,1.37376,11.5862
868,69,201,6.08591,41.0438,0,480,0,0.00000000,0.00000000,0,0,-255,0,-255,0,0,0,0,10.5,12.96,1.3608,11.5992
869,69,201,6.09748,40.96,0,446,0,0.00000000,0.00000000,0,0,-255,0,-255,0,0,0,0,10.5,12.96,1.3608,11.5992
870,66,201,6.10668,40.8224,0,446,0,0.00000000,0.00000000,0,0,-255,0,-255,0,0,0,0,10.7,12.96,1.38672,11.5733
871,66,201,6.11807,39.4184,0,0,0,0.00000000,0.00000000,0,0,-255,0,-255,0,0,0,0,10.7,12.96,1.38672,11.5733
872,66,201,6.12894,37.6213,0,0,0,0.00000000,0.00000000,0,0,-255,0,-255,0,0,0,0,11.2,12.99,1.45488,11.5351
873,66,200,6.1393,35.9736,0,0,0,0.00000000,0.00000000,0,0,-255,0,-255,0,0,0,0,11.2,12.99,1.45488,11.5351
874,0,200,6.14924,34.4488,0,0,0,0.00000000,0.00000000,0,0,-255,0,-255,0,0,0,0,12,13.02,1.5624,11.4576
875,0,200,6.15875,33.0383,0,0,0,0.00000000,0.00000000,0,0,-255,0,-255,0,0,0,0,12,13.02,1.5624,11.4576
876,0,200,6.16789,31.7276,0,0,0,0.00000000,0.00000000,0,0,-255,0,-255,0,0,0,0,12.7,13.05,1.65735,11.3926
877,0,199,6.17667,30.5059,0,0,0,0.00000000,0.00000000,0,0,-255,0,-255,0,0,0,0,12.7,13.05,1.65735,11.3926
878,0,198,6.1851,29.3671,0,0,0,0.00000000,0.00000000,0,0,-255,0,-255,0,0,0,0,14.8,13.07,1.93436,11.1356
879,0,198,6.19324,28.2981,0,0,0,0.00000000,0.00000000,0,0,-255,0,-255,0,0,0,0,14.8,13.07,1.93436,11.1356
880,0,197,6.20108,27.2935,0,0,0,0.00000000,0.00000000,0,0,-255,0,-255,0,0,0,0,17.1,13.09,2.23839,10.8516
881,65,197,6.20863,26.3503,0,0,0,0.00000000,0.00000000,0,0,-255,0,-255,0,0,0,0,17.1,13.09,2.23839,10.8516
882,0,196,6.21595,25.457,0,0,0,0.00000000,0.00000000,0,0,-255,0,-255,0,0,0,0,21.1,13.05,2.75355,10.2965
883,0,195,6.22163,24.7775,0,0,0,0.00000000,0.00000000,0,0,-255,0,-255,0,0,0,0,21.1,13.05,2.75355,10.2965
884,0,194,6.22851,23.9709,0,0,0,0.00000000,0.00000000,0,0,-255,0,-255,0,0,0,0,25.4,13.04,3.31216,9.72784
885,0,193,6.23515,23.2067,0,0,0,0.00000000,0.00000000,0,0,-255,0,-255,0,0,0,0,25.4,13.04,3.31216,9.72784
886,0,192,6.24159,22.4807,0,0,0,0.00000000,0.00000000,0,0,-255,0,-255,0,0,0,0,30.6,13,3.978,9.022
887,0,192,6.24785,21.7868,0,0,0,0.00000000,0.00000000,0,0,-255,0,-255,0,0,0,0,30.6,13,3.978,9.022
888,0,189,6.25389,21.1288,0,0,0,0.00000000,0.00000000,0,0,-255,0,-255,0,0,0,0,35.4,12.99,4.59846,8.39154
889,0,189,6.25976,20.5,0,0,0,0.00000000,0.00000000,0,0,-255,0,-255,0,0,0,0,35.4,12.99,4.59846,8.39154
890,0,187,6.26545,19.8991,0,0,0,0.00000000,0.00000000,0,0,-255,0,-255,0,0,0,0,39.8,12.99,5.17002,7.81998
891,0,186,6.27098,19.3234,0,0,0,0.00000000,0.00000000,0,0,-255,0,-255,0,0,0,0,39.8,12.99,5.17002,7.81998
892,0,185,6.27636,18.7712,0,0,0,0.00000000,0.00000000,0,0,-255,0,-255,0,0,0,0,43.8,13.02,5.70276,7.31724
893,0,185,6.28158,18.2419,0,0,0,0.00000000,0.00000000,0,0,-255,0,-255,0,0,0,0,43.8,13.02,5.70276,7.31724
894,0,184,6.28665,17.7333,0,0,0,0.00000000,0.00000000,0,0,-255,0,-255,0,0,0,0,48.5,13.03,6.31955,6.71045
895,0,184,6.29158,17.2445,0,0,0,0.00000000,0.00000000,0,0,-255,0,-255,0,0,0,0,48.5,13.03,6.31955,6.71045
896,0,183,6.29544,16.866,0,0,0,0.00000000,0.00000000,0,0,-255,0,-255,0,0,0,0,53.9,13.07,7.04473,6.02527
897,0,183,6.30014,16.4082,0,0,0,0.00000000,0.00000000,0,0,-255,0,-255,0,0,0,0,53.9,13.07,7.04473,6.02527
898,0,182,6.3047,15.9681,0,0,0,0.00000000,0.00000000,0,0,-255,0,-255,0,0,0,0,59.5,13.09,7.78855,5.30145
899,0,182,6.30913,15.5431,0,0,0,0.00000000,0.00000000,0,0,-255,0,-255,0,0,0,0,59.5,13.09,7.78855,5.30145
900,0,182,6.31347,15.1313,0,0,0,0.00000000,0.00000000,0,0,-255,0,-255,0,0,0,0,65.3,13.1,8.5543,4.5457
901,0,181,6.31816,14.6839,0,0,0,0.00000000,0.00000000,0,0,-255,0,-255,0,0,0,0,65.3,13.1,8.5543,4.5457
