secs,cad,hr,km,kph,nm,watts,alt,lon,lat,headwind,slope,temp,interval,lrbalance,lte,rte,lps,rps,smo2,thb,o2hb,hhb
0,0,111,0,1.25545,0,27,0,0.00000000,0.00000000,0,0,0,0,-255,0,0,0,0,66.1,12.91,8.53351,4.37649
1,0,111,0.000797301,4.57933,0,119,0,0.00000000,0.00000000,0,0,0,0,-255,0,0,0,0,65.8,12.91,8.49478,4.41522
2,1,113,0.00256046,7.32134,0,103,0,0.00000000,0.00000000,0,0,0,0,-255,0,0,0,0,65.8,12.91,8.49478,4.41522
3,47,113,0.00477426,8.29369,0,52,0,0.00000000,0.00000000,0,0,0,0,-255,0,0,0,0,65.5,12.91,8.45605,4.45395
4,47,113,0.00723556,9.02657,0,52,0,0.00000000,0.00000000,0,0,0,0,-255,0,0,0,0,65.5,12.91,8.45605,4.45395
5,83,112,0.00986681,9.65512,0,50,0,0.00000000,0.00000000,0,0,0,0,-255,0,0,0,0,64.4,12.93,8.32692,4.60308
6,86,111,0.0127058,10.219,0,50,0,0.00000000,0.00000000,0,0,0,0,-255,0,0,0,0,64.4,12.93,8.32692,4.60308
7,91,110,0.0157233,10.7496,0,53,0,0.00000000,0.00000000,0,0,0,0,-255,0,0,0,0,62.8,12.93,8.12004,4.80996
8,96,110,0.0182569,11.1565,0,54,0,0.00000000,0.00000000,0,0,0,0,-255,0,0,0,0,62.8,12.93,8.12004,4.80996
9,96,111,0.0215073,11.6024,0,47,0,0.00000000,0.00000000,0,0,0,0,-255,0,0,0,0,61.5,12.92,7.9458,4.9742
10,100,111,0.0248483,11.9019,0,38,0,0.00000000,0.00000000,0,0,0,0,-255,0,0,0,0,61.5,12.92,7.9458,4.9742
11,100,112,0.0283556,12.1574,0,39,0,0.00000000,0.00000000,0,0,0,0,-255,0,0,0,0,60.4,12.93,7.80972,5.12028
12,0,113,0.0318809,12.3354,0,23,0,0.00000000,0.00000000,0,0,0,0,-255,0,0,0,0,60.4,12.93,7.80972,5.12028
13,0,113,0.0354318,12.4219,0,47,0,0.00000000,0.00000000,0,0,0,0,-255,0,0,0,0,59.3,12.92,7.66156,5.25844
14,0,113,0.0383686,12.6469,0,45,0,0.00000000,0.00000000,0,0,0,0,-255,0,0,0,0,59.3,12.92,7.66156,5.25844
15,0,113,0.0420282,12.8747,0,33,0,0.00000000,0.00000000,0,0,0,0,-255,0,0,0,0,59.8,12.91,7.72018,5.18982
16,0,113,0.0457391,13.1123,0,59,0,0.00000000,0.00000000,0,0,0,0,-255,0,0,0,0,59.8,12.91,7.72018,5.18982
17,88,113,0.0494915,13.4273,0,50,0,0.00000000,0.00000000,0,0,0,0,-255,0,0,0,0,61.8,12.92,7.98456,4.93544
18,89,114,0.0534001,13.6588,0,38,0,0.00000000,0.00000000,0,0,0,0,-255,0,0,0,0,61.8,12.92,7.98456,4.93544
19,89,115,0.05734,13.7688,0,50,0,0.00000000,0.00000000,0,0,0,0,-255,0,0,0,0,63.5,12.93,8.21055,4.71945
20,89,116,0.0605948,13.9465,0,49,0,0.00000000,0.00000000,0,0,0,0,-255,0,0,0,0,63.5,12.93,8.21055,4.71945
21,91,116,0.064559,14.1507,0,50,0,0.00000000,0.00000000,0,0,0,0,-255,0,0,0,0,65,12.92,8.398,4.522
22,94,117,0.0686626,14.348,0,50,0,0.00000000,0.00000000,0,0,0,0,-255,0,0,0,0,65,12.92,8.398,4.522
23,95,118,0.0728586,14.5357,0,50,0,0.00000000,0.00000000,0,0,0,0,-255,0,0,0,0,66.8,12.92,8.63056,4.28944
24,95,120,0.0770172,14.674,0,37,0,0.00000000,0.00000000,0,0,0,0,-255,0,0,0,0,66.8,12.92,8.63056,4.28944
25,95,120,0.0811607,14.767,0,38,0,0.00000000,0.00000000,0,0,0,0,-255,0,0,0,0,67.9,12.92,8.77268,4.14732
26,95,121,0.0854076,14.8569,0,37,0,0.00000000,0.00000000,0,0,0,0,-255,0,0,0,0,67.9,12.92,8.77268,4.14732
27,95,121,0.089618,14.8736,0,42,0,0.00000000,0.00000000,0,0,0,0,-255,0,0,0,0,67.9,12.92,8.77268,4.14732
28,0,121,0.093847,14.9927,0,50,0,0.00000000,0.00000000,0,0,0,0,-255,0,0,0,0,67.9,12.92,8.77268,4.14732
29,93,121,0.0980561,15.1307,0,50,0,0.00000000,0.00000000,0,0,0,0,-255,0,0,0,0,67.5,12.92,8.721,4.199
30,93,120,0.101478,15.1707,0,38,0,0.00000000,0.00000000,0,0,0,0,-255,0,0,0,0,67.5,12.92,8.721,4.199
31,93,120,0.105759,15.2412,0,49,0,0.00000000,0.00000000,0,0,0,0,-255,0,0,0,0,67.5,12.92,8.721,4.199
32,94,120,0.110175,15.3396,0,37,0,0.00000000,0.00000000,0,0,0,0,-255,0,0,0,0,67.5,12.92,8.721,4.199
33,94,120,0.114498,15.3822,0,50,0,0.00000000,0.00000000,0,0,0,0,-255,0,0,0,0,67.5,12.92,8.721,4.199
34,94,120,0.118862,15.4962,0,50,0,0.00000000,0.00000000,0,0,0,0,-255,0,0,0,0,67.5,12.92,8.721,4.199
35,95,120,0.123231,15.5991,0,49,0,0.00000000,0.00000000,0,0,0,0,-255,0,0,0,0,67.3,12.92,8.69516,4.22484
36,96,120,0.127821,15.6933,0,50,0,0.00000000,0.00000000,0,0,0,0,-255,0,0,0,0,67.3,12.92,8.69516,4.22484
37,96,119,0.13226,15.785,0,50,0,0.00000000,0.00000000,0,0,0,0,-255,0,0,0,0,67.1,12.91,8.66261,4.24739
38,97,118,0.136693,15.8731,0,51,0,0.00000000,0.00000000,0,0,0,0,-255,0,0,0,0,67.1,12.91,8.66261,4.24739
39,97,116,0.141345,15.959,0,50,0,0.00000000,0.00000000,0,0,0,0,-255,0,0,0,0,66.8,12.91,8.62388,4.28612
40,98,116,0.144919,16.021,0,51,0,0.00000000,0.00000000,0,0,0,0,-255,0,0,0,0,66.8,12.91,8.62388,4.28612
41,98,116,0.149494,16.109,0,52,0,0.00000000,0.00000000,0,0,0,0,-255,0,0,0,0,66.3,12.91,8.55933,4.35067
42,98,115,0.153992,16.1943,0,52,0,0.00000000,0.00000000,0,0,0,0,-255,0,0,0,0,66.3,12.91,8.55933,4.35067
43,98,115,0.158586,16.1591,0,23,0,0.00000000,0.00000000,0,0,0,0,-255,0,0,0,0,66,12.91,8.5206,4.3894
44,98,115,0.163207,15.9658,0,31,0,0.00000000,0.00000000,0,0,0,0,-255,0,0,0,0,66,12.91,8.5206,4.3894
45,0,116,0.167707,15.954,0,43,0,0.00000000,0.00000000,0,0,0,0,-255,0,0,0,0,65.8,12.91,8.49478,4.41522
46,0,117,0.172372,15.9245,0,37,0,0.00000000,0.00000000,0,0,0,0,-255,0,0,0,0,65.8,12.91,8.49478,4.41522
47,0,117,0.177051,15.6761,0,12,0,0.00000000,0.00000000,0,0,0,0,-255,0,0,0,0,65.7,12.91,8.48187,4.42813
48,0,118,0.180701,15.3478,0,6,0,0.00000000,0.00000000,0,0,0,0,-255,0,0,0,0,65.7,12.91,8.48187,4.42813
49,0,118,0.184976,15.1116,0,6,0,0.00000000,0.00000000,0,0,0,0,-255,0,0,0,0,65.7,12.91,8.48187,4.42813
50,0,118,0.18922,14.7439,0,0,0,0.00000000,0.00000000,0,0,0,0,-255,0,0,0,0,65.7,12.91,8.48187,4.42813
51,0,116,0.19332,14.3882,0,25,0,0.00000000,0.00000000,0,0,0,0,-255,0,0,0,0,66.3,12.91,8.55933,4.35067
52,0,115,0.197421,14.4165,0,35,0,0.00000000,0.00000000,0,0,0,0,-255,0,0,0,0,66.3,12.91,8.55933,4.35067
53,0,114,0.201476,14.2979,0,19,0,0.00000000,0.00000000,0,0,0,0,-255,0,0,0,0,66.9,12.91,8.63679,4.27321
54,0,114,0.205635,14.2997,0,38,0,0.00000000,0.00000000,0,0,0,0,-255,0,0,0,0,66.9,12.91,8.63679,4.27321
55,77,114,0.209719,14.4344,0,49,0,0.00000000,0.00000000,0,0,0,0,-255,0,0,0,0,67.6,12.92,8.73392,4.18608
56,78,113,0.213812,14.6085,0,49,0,0.00000000,0.00000000,0,0,0,0,-255,0,0,0,0,67.6,12.92,8.73392,4.18608
57,78,113,0.217992,14.7725,0,49,0,0.00000000,0.00000000,0,0,0,0,-255,0,0,0,0,68.2,12.92,8.81144,4.10856
58,80,113,0.22224,14.9253,0,50,0,0.00000000,0.00000000,0,0,0,0,-255,0,0,0,0,68.2,12.92,8.81144,4.10856
59,82,112,0.22578,15.041,0,49,0,0.00000000,0.00000000,0,0,0,0,-255,0,0,0,0,69,12.93,8.9217,4.0083
60,84,111,0.230005,15.1657,0,49,0,0.00000000,0.00000000,0,0,0,0,-255,0,0,0,0,69,12.93,8.9217,4.0083
61,84,111,0.234327,15.2926,0,49,0,0.00000000,0.00000000,0,0,0,0,-255,0,0,0,0,69.6,12.93,8.99928,3.93072
62,83,111,0.238643,15.4016,0,49,0,0.00000000,0.00000000,0,0,0,0,-255,0,0,0,0,69.6,12.93,8.99928,3.93072
63,83,111,0.243037,15.5062,0,49,0,0.00000000,0.00000000,0,0,0,0,-255,0,0,0,0,69.9,12.93,9.03807,3.89193
64,83,111,0.247402,15.6013,0,49,0,0.00000000,0.00000000,0,0,0,0,-255,0,0,0,0,69.9,12.93,9.03807,3.89193
65,83,110,0.251812,15.6958,0,50,0,0.00000000,0.00000000,0,0,0,0,-255,0,0,0,0,70,12.93,9.051,3.879
66,83,110,0.256342,15.7911,0,50,0,0.00000000,0.00000000,0,0,0,0,-255,0,0,0,0,70,12.93,9.051,3.879
67,83,110,0.260798,15.8703,0,50,0,0.00000000,0.00000000,0,0,0,0,-255,0,0,0,0,70.1,12.93,9.06393,3.86607
68,84,110,0.265337,15.9464,0,49,0,0.00000000,0.00000000,0,0,0,0,-255,0,0,0,0,70.1,12.93,9.06393,3.86607
69,85,111,0.269922,16.015,0,49,0,0.00000000,0.00000000,0,0,0,0,-255,0,0,0,0,70.1,12.93,9.06393,3.86607
70,86,112,0.273678,16.04,0,44,0,0.00000000,0.00000000,0,0,0,0,-255,0,0,0,0,70.1,12.93,9.06393,3.86607
71,86,112,0.278207,16.0231,0,50,0,0.00000000,0.00000000,0,0,0,0,-255,0,0,0,0,70.2,12.93,9.07686,3.85314
72,86,113,0.282719,16.0951,0,50,0,0.00000000,0.00000000,0,0,0,0,-255,0,0,0,0,70.2,12.93,9.07686,3.85314
73,86,113,0.287266,16.1628,0,50,0,0.00000000,0.00000000,0,0,0,0,-255,0,0,0,0,70.2,12.93,9.07686,3.85314
74,86,113,0.291857,16.2266,0,50,0,0.00000000,0.00000000,0,0,0,0,-255,0,0,0,0,70.1,12.93,9.06393,3.86607
75,86,114,0.296476,16.2864,0,50,0,0.00000000,0.00000000,0,0,0,0,-255,0,0,0,0,69.8,12.93,9.02514,3.90486
76,87,115,0.301165,16.338,0,49,0,0.00000000,0.00000000,0,0,0,0,-255,0,0,0,0,69.8,12.93,9.02514,3.90486
77,86,115,0.305866,16.3036,0,33,0,0.00000000,0.00000000,0,0,0,0,-255,0,0,0,0,69.5,12.93,8.98635,3.94365
78,86,115,0.310438,16.0444,0,13,0,0.00000000,0.00000000,0,0,0,0,-255,0,0,0,0,69.5,12.93,8.98635,3.94365
79,86,115,0.315017,15.9264,0,38,0,0.00000000,0.00000000,0,0,0,0,-255,0,0,0,0,69.3,12.93,8.96049,3.96951
80,0,114,0.318665,15.9736,0,49,0,0.00000000,0.00000000,0,0,0,0,-255,0,0,0,0,69.3,12.93,8.96049,3.96951
81,0,114,0.323334,16.0466,0,50,0,0.00000000,0.00000000,0,0,0,0,-255,0,0,0,0,68.9,12.93,8.90877,4.02123
82,0,113,0.327947,16.1137,0,49,0,0.00000000,0.00000000,0,0,0,0,-255,0,0,0,0,68.9,12.93,8.90877,4.02123
83,0,113,0.332627,16.1792,0,50,0,0.00000000,0.00000000,0,0,0,0,-255,0,0,0,0,68.5,12.92,8.8502,4.0698
84,83,113,0.337233,16.2333,0,49,0,0.00000000,0.00000000,0,0,0,0,-255,0,0,0,0,68.5,12.92,8.8502,4.0698
85,86,113,0.34183,16.2876,0,50,0,0.00000000,0.00000000,0,0,0,0,-255,0,0,0,0,68.5,12.92,8.8502,4.0698
86,86,114,0.346528,16.3372,0,49,0,0.00000000,0.00000000,0,0,0,0,-255,0,0,0,0,68.5,12.92,8.8502,4.0698
87,87,114,0.350219,16.3726,0,50,0,0.00000000,0.00000000,0,0,0,0,-255,0,0,0,0,68.9,12.92,8.90188,4.01812
88,87,114,0.354919,16.4058,0,44,0,0.00000000,0.00000000,0,0,0,0,-255,0,0,0,0,68.9,12.92,8.90188,4.01812
89,87,114,0.359526,16.3552,0,49,0,0.00000000,0.00000000,0,0,0,0,-255,0,0,0,0,69.2,12.92,8.94064,3.97936
90,87,114,0.364239,16.3986,0,50,0,0.00000000,0.00000000,0,0,0,0,-255,0,0,0,0,69.2,12.92,8.94064,3.97936
91,88,114,0.368911,16.3192,0,38,0,0.00000000,0.00000000,0,0,0,0,-255,0,0,0,0,69.6,12.92,8.99232,3.92768
92,88,114,0.373605,16.3027,0,50,0,0.00000000,0.00000000,0,0,0,0,-255,0,0,0,0,69.6,12.92,8.99232,3.92768
93,88,113,0.378183,16.3569,0,50,0,0.00000000,0.00000000,0,0,0,0,-255,0,0,0,0,70,12.92,9.044,3.876
94,117,113,0.382838,16.4083,0,50,0,0.00000000,0.00000000,0,0,0,0,-255,0,0,0,0,70,12.92,9.044,3.876
95,117,114,0.387458,16.4502,0,50,0,0.00000000,0.00000000,0,0,0,0,-255,0,0,0,0,70.3,12.93,9.08979,3.84021
96,117,114,0.39209,16.4952,0,50,0,0.00000000,0.00000000,0,0,0,0,-255,0,0,0,0,70.3,12.93,9.08979,3.84021
97,117,115,0.396753,16.5375,0,50,0,0.00000000,0.00000000,0,0,0,0,-255,0,0,0,0,70.1,12.93,9.06393,3.86607
98,118,116,0.401439,16.5724,0,49,0,0.00000000,0.00000000,0,0,0,0,-255,0,0,0,0,70.1,12.93,9.06393,3.86607
99,91,117,0.406108,16.6087,0,50,0,0.00000000,0.00000000,0,0,0,0,-255,0,0,0,0,69.8,12.92,9.01816,3.90184
100,92,117,0.409943,16.6376,0,50,0,0.00000000,0.00000000,0,0,0,0,-255,0,0,0,0,69.8,12.92,9.01816,3.90184
101,85,116,0.414719,16.6627,0,49,0,0.00000000,0.00000000,0,0,0,0,-255,0,0,0,0,69.4,12.92,8.96648,3.95352
102,85,116,0.419442,16.685,0,49,0,0.00000000,0.00000000,0,0,0,0,-255,0,0,0,0,69.4,12.92,8.96648,3.95352
103,86,115,0.424214,16.7061,0,49,0,0.00000000,0.00000000,0,0,0,0,-255,0,0,0,0,69,12.92,8.9148,4.0052
104,86,114,0.429077,16.705,0,38,0,0.00000000,0.00000000,0,0,0,0,-255,0,0,0,0,69,12.92,8.9148,4.0052
105,86,114,0.433832,16.6663,0,50,0,0.00000000,0.00000000,0,0,0,0,-255,0,0,0,0,68.7,12.92,8.87604,4.04396
106,86,115,0.438538,16.6977,0,50,0,0.00000000,0.00000000,0,0,0,0,-255,0,0,0,0,68.7,12.92,8.87604,4.04396
107,86,115,0.442384,16.7219,0,50,0,0.00000000,0.00000000,0,0,0,0,-255,0,0,0,0,68.5,12.92,8.8502,4.0698
108,86,115,0.447087,16.7186,0,45,0,0.00000000,0.00000000,0,0,0,0,-255,0,0,0,0,68.5,12.92,8.8502,4.0698
109,86,115,0.451802,16.6199,0,41,0,0.00000000,0.00000000,0,0,0,0,-255,0,0,0,0,68.4,12.92,8.83728,4.08272
110,86,114,0.456615,16.3817,0,16,0,0.00000000,0.00000000,0,0,0,0,-255,0,0,0,0,68.4,12.92,8.83728,4.08272
111,86,114,0.4612,16.2722,0,50,0,0.00000000,0.00000000,0,0,0,0,-255,0,0,0,0,68.4,12.92,8.83728,4.08272
112,0,112,0.465869,16.3246,0,49,0,0.00000000,0.00000000,0,0,0,0,-255,0,0,0,0,68.4,12.93,8.84412,4.08588
113,118,111,0.470554,16.3766,0,49,0,0.00000000,0.00000000,0,0,0,0,-255,0,0,0,0,68.3,12.93,8.83119,4.09881
114,121,111,0.475173,16.4197,0,50,0,0.00000000,0.00000000,0,0,0,0,-255,0,0,0,0,68.3,12.93,8.83119,4.09881
115,122,110,0.479881,16.4607,0,49,0,0.00000000,0.00000000,0,0,0,0,-255,0,0,0,0,68.1,12.93,8.80533,4.12467
116,86,111,0.484557,16.5026,0,50,0,0.00000000,0.00000000,0,0,0,0,-255,0,0,0,0,68.1,12.93,8.80533,4.12467
117,86,112,0.488359,16.5339,0,49,0,0.00000000,0.00000000,0,0,0,0,-255,0,0,0,0,68.1,12.92,8.79852,4.12148
118,87,112,0.492988,16.564,0,49,0,0.00000000,0.00000000,0,0,0,0,-255,0,0,0,0,68.1,12.92,8.79852,4.12148
119,87,115,0.497731,16.5928,0,49,0,0.00000000,0.00000000,0,0,0,0,-255,0,0,0,0,68.4,12.92,8.83728,4.08272
120,87,115,0.502529,16.62,0,49,0,0.00000000,0.00000000,0,0,0,0,-255,0,0,0,0,68.4,12.92,8.83728,4.08272
121,87,115,0.507267,16.652,0,50,0,0.00000000,0.00000000,0,0,0,0,-255,0,0,0,0,68.6,12.92,8.86312,4.05688
122,87,115,0.512113,16.6853,0,50,0,0.00000000,0.00000000,0,0,0,0,-255,0,0,0,0,68.6,12.92,8.86312,4.05688
123,86,114,0.516852,16.709,0,49,0,0.00000000,0.00000000,0,0,0,0,-255,0,0,0,0,68.7,12.92,8.87604,4.04396
124,86,113,0.521616,16.7285,0,49,0,0.00000000,0.00000000,0,0,0,0,-255,0,0,0,0,68.7,12.92,8.87604,4.04396
125,86,113,0.52633,16.7334,0,43,0,0.00000000,0.00000000,0,0,0,0,-255,0,0,0,0,69,12.93,8.9217,4.0083
126,86,112,0.530128,16.6618,0,37,0,0.00000000,0.00000000,0,0,0,0,-255,0,0,0,0,69,12.93,8.9217,4.0083
127,86,112,0.534825,16.6815,0,50,0,0.00000000,0.00000000,0,0,0,0,-255,0,0,0,0,69.2,12.93,8.94756,3.98244
128,87,112,0.539626,16.7115,0,49,0,0.00000000,0.00000000,0,0,0,0,-255,0,0,0,0,69.2,12.93,8.94756,3.98244
129,87,113,0.544321,16.7315,0,50,0,0.00000000,0.00000000,0,0,0,0,-255,0,0,0,0,69,12.93,8.9217,4.0083
130,87,113,0.549029,16.7578,0,49,0,0.00000000,0.00000000,0,0,0,0,-255,0,0,0,0,69,12.93,8.9217,4.0083
132,88,113,0.553745,16.7201,0,38,0,0.00000000,0.00000000,0,0,0,0,-255,0,0,0,0,68.7,12.93,8.88291,4.04709
133,88,114,0.558512,16.6762,0,50,0,0.00000000,0.00000000,0,0,0,0,-255,0,0,0,0,68.7,12.93,8.88291,4.04709
134,89,114,0.563243,16.7054,0,50,0,0.00000000,0.00000000,0,0,0,0,-255,0,0,0,0,68.3,12.93,8.83119,4.09881
135,89,114,0.567956,16.7343,0,50,0,0.00000000,0.00000000,0,0,0,0,-255,0,0,0,0,68.3,12.93,8.83119,4.09881
136,89,113,0.572694,16.7616,0,50,0,0.00000000,0.00000000,0,0,0,0,-255,0,0,0,0,67.6,12.93,8.74068,4.18932
137,89,113,0.577449,16.7524,0,38,0,0.00000000,0.00000000,0,0,0,0,-255,0,0,0,0,67.6,12.93,8.74068,4.18932
138,89,111,0.58217,16.6553,0,38,0,0.00000000,0.00000000,0,0,0,0,-255,0,0,0,0,67,12.93,8.6631,4.2669
139,89,110,0.586868,16.6547,0,50,0,0.00000000,0.00000000,0,0,0,0,-255,0,0,0,0,67,12.93,8.6631,4.2669
140,89,108,0.590618,16.6704,0,40,0,0.00000000,0.00000000,0,0,0,0,-255,0,0,0,0,66.5,12.92,8.5918,4.3282
141,89,107,0.595344,16.6198,0,42,0,0.00000000,0.00000000,0,0,0,0,-255,0,0,0,0,66.5,12.92,8.5918,4.3282
142,89,107,0.600011,16.4097,0,18,0,0.00000000,0.00000000,0,0,0,0,-255,0,0,0,0,66.3,12.92,8.56596,4.35404
143,0,107,0.604641,16.3371,0,37,0,0.00000000,0.00000000,0,0,0,0,-255,0,0,0,0,66.3,12.92,8.56596,4.35404
144,82,107,0.609253,16.3262,0,49,0,0.00000000,0.00000000,0,0,0,0,-255,0,0,0,0,66.4,12.92,8.57888,4.34112
145,82,108,0.613894,16.3717,0,49,0,0.00000000,0.00000000,0,0,0,0,-255,0,0,0,0,66.4,12.92,8.57888,4.34112
146,81,108,0.618495,16.4121,0,49,0,0.00000000,0.00000000,0,0,0,0,-255,0,0,0,0,67,12.92,8.6564,4.2636
147,82,108,0.623104,16.4498,0,49,0,0.00000000,0.00000000,0,0,0,0,-255,0,0,0,0,67,12.92,8.6564,4.2636
148,80,107,0.627769,16.4866,0,50,0,0.00000000,0.00000000,0,0,0,0,-255,0,0,0,0,67.3,12.92,8.69516,4.22484
149,81,107,0.632415,16.5283,0,49,0,0.00000000,0.00000000,0,0,0,0,-255,0,0,0,0,67.3,12.92,8.69516,4.22484
150,83,107,0.637142,16.5272,0,46,0,0.00000000,0.00000000,0,0,0,0,-255,0,0,0,0,67.2,12.92,8.68224,4.23776
151,83,108,0.640879,16.559,0,52,0,0.00000000,0.00000000,0,0,0,0,-255,0,0,0,0,67.2,12.92,8.68224,4.23776
152,86,109,0.645575,16.5945,0,49,0,0.00000000,0.00000000,0,0,0,0,-255,0,0,0,0,67.3,12.92,8.69516,4.22484
153,86,110,0.650248,16.5144,0,34,0,0.00000000,0.00000000,0,0,0,0,-255,0,0,0,0,67.3,12.92,8.69516,4.22484
154,86,111,0.654953,16.4769,0,45,0,0.00000000,0.00000000,0,0,0,0,-255,0,0,0,0,68,12.93,8.7924,4.1376
155,86,111,0.659597,16.4031,0,37,0,0.00000000,0.00000000,0,0,0,0,-255,0,0,0,0,68,12.93,8.7924,4.1376
156,90,112,0.664326,16.4303,0,49,0,0.00000000,0.00000000,0,0,0,0,-255,0,0,0,0,68.7,12.93,8.88291,4.04709
157,87,112,0.668994,16.3927,0,38,0,0.00000000,0.00000000,0,0,0,0,-255,0,0,0,0,68.7,12.93,8.88291,4.04709
158,87,112,0.673748,16.4053,0,49,0,0.00000000,0.00000000,0,0,0,0,-255,0,0,0,0,69.3,12.94,8.96742,3.97258
159,87,112,0.678384,16.4438,0,49,0,0.00000000,0.00000000,0,0,0,0,-255,0,0,0,0,69.9,12.94,9.04506,3.89494
160,89,112,0.683003,16.4796,0,49,0,0.00000000,0.00000000,0,0,0,0,-255,0,0,0,0,69.9,12.94,9.04506,3.89494
161,89,112,0.687652,16.5133,0,49,0,0.00000000,0.00000000,0,0,0,0,-255,0,0,0,0,69.9,12.94,9.04506,3.89494
162,89,112,0.691452,16.5392,0,49,0,0.00000000,0.00000000,0,0,0,0,-255,0,0,0,0,70.2,12.95,9.0909,3.8591
163,89,112,0.696111,16.5691,0,49,0,0.00000000,0.00000000,0,0,0,0,-255,0,0,0,0,70.2,12.95,9.0909,3.8591
164,89,113,0.700777,16.5597,0,46,0,0.00000000,0.00000000,0,0,0,0,-255,0,0,0,0,70.2,12.95,9.0909,3.8591
165,89,113,0.705537,16.5718,0,52,0,0.00000000,0.00000000,0,0,0,0,-255,0,0,0,0,70.2,12.95,9.0909,3.8591
166,87,113,0.710194,16.6099,0,49,0,0.00000000,0.00000000,0,0,0,0,-255,0,0,0,0,70.3,12.95,9.10385,3.84615
167,87,113,0.714907,16.6355,0,49,0,0.00000000,0.00000000,0,0,0,0,-255,0,0,0,0,70.3,12.95,9.10385,3.84615
168,89,113,0.71972,16.635,0,37,0,0.00000000,0.00000000,0,0,0,0,-255,0,0,0,0,70.4,12.95,9.1168,3.8332
169,89,112,0.724489,16.5806,0,49,0,0.00000000,0.00000000,0,0,0,0,-255,0,0,0,0,70.5,12.95,9.12975,3.82025
170,89,112,0.729184,16.6081,0,49,0,0.00000000,0.00000000,0,0,0,0,-255,0,0,0,0,70.5,12.95,9.12975,3.82025
171,89,111,0.73299,16.629,0,49,0,0.00000000,0.00000000,0,0,0,0,-255,0,0,0,0,70.5,12.95,9.12975,3.82025
172,89,111,0.737711,16.6535,0,49,0,0.00000000,0.00000000,0,0,0,0,-255,0,0,0,0,70.4,12.95,9.1168,3.8332
173,90,110,0.742414,16.6763,0,49,0,0.00000000,0.00000000,0,0,0,0,-255,0,0,0,0,70.4,12.95,9.1168,3.8332
174,90,109,0.747175,16.7048,0,50,0,0.00000000,0.00000000,0,0,0,0,-255,0,0,0,0,70,12.94,9.058,3.882
175,90,109,0.751897,16.7338,0,50,0,0.00000000,0.00000000,0,0,0,0,-255,0,0,0,0,69.3,12.94,8.96742,3.97258
176,90,109,0.756627,16.761,0,50,0,0.00000000,0.00000000,0,0,0,0,-255,0,0,0,0,69.3,12.94,8.96742,3.97258
177,91,109,0.761354,16.7817,0,49,0,0.00000000,0.00000000,0,0,0,0,-255,0,0,0,0,68.8,12.94,8.90272,4.03728
178,91,109,0.766108,16.7984,0,49,0,0.00000000,0.00000000,0,0,0,0,-255,0,0,0,0,68.8,12.94,8.90272,4.03728
179,95,109,0.770864,16.8151,0,50,0,0.00000000,0.00000000,0,0,0,0,-255,0,0,0,0,68.4,12.93,8.84412,4.08588
180,89,109,0.77577,16.8379,0,50,0,0.00000000,0.00000000,0,0,0,0,-255,0,0,0,0,68.4,12.93,8.84412,4.08588
181,92,109,0.779668,16.8549,0,50,0,0.00000000,0.00000000,0,0,0,0,-255,0,0,0,0,68.4,12.93,8.84412,4.08588
182,92,109,0.784575,16.83,0,31,0,0.00000000,0.00000000,0,0,0,0,-255,0,0,0,0,68,12.93,8.7924,4.1376
183,92,109,0.789349,16.5745,0,31,0,0.00000000,0.00000000,0,0,0,0,-255,0,0,0,0,67.4,12.92,8.70808,4.21192
184,92,109,0.794091,16.5971,0,49,0,0.00000000,0.00000000,0,0,0,0,-255,0,0,0,0,67.4,12.92,8.70808,4.21192
185,90,109,0.798868,16.6239,0,49,0,0.00000000,0.00000000,0,0,0,0,-255,0,0,0,0,67.1,12.92,8.66932,4.25068
186,90,109,0.803606,16.6488,0,49,0,0.00000000,0.00000000,0,0,0,0,-255,0,0,0,0,67.1,12.92,8.66932,4.25068
187,89,110,0.808345,16.6769,0,50,0,0.00000000,0.00000000,0,0,0,0,-255,0,0,0,0,67.1,12.92,8.66932,4.25068
188,89,111,0.813008,16.7007,0,49,0,0.00000000,0.00000000,0,0,0,0,-255,0,0,0,0,67,12.92,8.6564,4.2636
189,89,111,0.817764,16.7208,0,49,0,0.00000000,0.00000000,0,0,0,0,-255,0,0,0,0,66.9,12.91,8.63679,4.27321
190,90,111,0.821605,16.738,0,49,0,0.00000000,0.00000000,0,0,0,0,-255,0,0,0,0,66.9,12.91,8.63679,4.27321
191,90,109,0.826467,16.758,0,49,0,0.00000000,0.00000000,0,0,0,0,-255,0,0,0,0,67.1,12.92,8.66932,4.25068
192,90,109,0.831197,16.7827,0,50,0,0.00000000,0.00000000,0,0,0,0,-255,0,0,0,0,67.1,12.92,8.66932,4.25068
193,89,108,0.835937,16.8068,0,50,0,0.00000000,0.00000000,0,0,0,0,-255,0,0,0,0,67.4,12.92,8.70808,4.21192
194,89,106,0.840669,16.8293,0,50,0,0.00000000,0.00000000,0,0,0,0,-255,0,0,0,0,67.4,12.92,8.70808,4.21192
195,89,105,0.845419,16.8505,0,50,0,0.00000000,0.00000000,0,0,0,0,-255,0,0,0,0,67.4,12.92,8.70808,4.21192
196,89,104,0.850289,16.8708,0,50,0,0.00000000,0.00000000,0,0,0,0,-255,0,0,0,0,67.4,12.92,8.70808,4.21192
197,89,104,0.855111,16.8895,0,50,0,0.00000000,0.00000000,0,0,0,0,-255,0,0,0,0,67.5,12.92,8.721,4.199
198,89,104,0.859921,16.9052,0,50,0,0.00000000,0.00000000,0,0,0,0,-255,0,0,0,0,67.5,12.92,8.721,4.199
199,89,105,0.864714,16.915,0,49,0,0.00000000,0.00000000,0,0,0,0,-255,0,0,0,0,67.5,12.92,8.721,4.199
200,89,106,0.869473,16.9129,0,40,0,0.00000000,0.00000000,0,0,0,0,-255,0,0,0,0,67.5,12.92,8.721,4.199
201,89,106,0.873352,16.9101,0,49,0,0.00000000,0.00000000,0,0,0,0,-255,0,0,0,0,67.3,12.92,8.69516,4.22484
202,90,105,0.878134,16.9168,0,49,0,0.00000000,0.00000000,0,0,0,0,-255,0,0,0,0,67.3,12.92,8.69516,4.22484
203,90,105,0.882897,16.9269,0,49,0,0.00000000,0.00000000,0,0,0,0,-255,0,0,0,0,66.6,12.92,8.60472,4.31528
204,90,103,0.887747,16.9375,0,50,0,0.00000000,0.00000000,0,0,0,0,-255,0,0,0,0,66.6,12.92,8.60472,4.31528
205,90,103,0.892659,16.9522,0,50,0,0.00000000,0.00000000,0,0,0,0,-255,0,0,0,0,66.6,12.92,8.60472,4.31528
206,90,103,0.897391,16.9655,0,50,0,0.00000000,0.00000000,0,0,0,0,-255,0,0,0,0,65.9,12.92,8.51428,4.40572
207,91,103,0.902358,16.9717,0,49,0,0.00000000,0.00000000,0,0,0,0,-255,0,0,0,0,65.3,12.92,8.43676,4.48324
208,91,103,0.907152,16.9812,0,50,0,0.00000000,0.00000000,0,0,0,0,-255,0,0,0,0,65.3,12.92,8.43676,4.48324
209,91,105,0.911989,16.9929,0,50,0,0.00000000,0.00000000,0,0,0,0,-255,0,0,0,0,65,12.92,8.398,4.522
210,91,106,0.916824,17.0009,0,49,0,0.00000000,0.00000000,0,0,0,0,-255,0,0,0,0,65,12.92,8.398,4.522
211,91,106,0.921722,17.002,0,49,0,0.00000000,0.00000000,0,0,0,0,-255,0,0,0,0,64.9,12.92,8.38508,4.53492
212,91,108,0.925564,17.0028,0,49,0,0.00000000,0.00000000,0,0,0,0,-255,0,0,0,0,64.9,12.92,8.38508,4.53492
213,92,109,0.930366,17.0056,0,49,0,0.00000000,0.00000000,0,0,0,0,-255,0,0,0,0,65.1,12.92,8.41092,4.50908
214,92,110,0.935249,17.0066,0,43,0,0.00000000,0.00000000,0,0,0,0,-255,0,0,0,0,65.1,12.92,8.41092,4.50908
215,92,110,0.939999,16.8563,0,25,0,0.00000000,0.00000000,0,0,0,0,-255,0,0,0,0,65.2,12.92,8.42384,4.49616
216,92,110,0.944885,16.8064,0,46,0,0.00000000,0.00000000,0,0,0,0,-255,0,0,0,0,65.2,12.92,8.42384,4.49616
217,0,110,0.949684,16.7546,0,42,0,0.00000000,0.00000000,0,0,0,0,-255,0,0,0,0,65.3,12.91,8.43023,4.47977
218,0,110,0.954367,16.7005,0,46,0,0.00000000,0.00000000,0,0,0,0,-255,0,0,0,0,65.3,12.91,8.43023,4.47977
219,87,111,0.959191,16.725,0,50,0,0.00000000,0.00000000,0,0,0,0,-255,0,0,0,0,65.4,12.91,8.44314,4.46686
220,87,111,0.964018,16.7514,0,50,0,0.00000000,0.00000000,0,0,0,0,-255,0,0,0,0,65.4,12.91,8.44314,4.46686
221,88,111,0.967955,16.7713,0,50,0,0.00000000,0.00000000,0,0,0,0,-255,0,0,0,0,65.5,12.92,8.4626,4.4574
222,87,112,0.97275,16.7964,0,50,0,0.00000000,0.00000000,0,0,0,0,-255,0,0,0,0,65.5,12.92,8.4626,4.4574
223,88,112,0.977598,16.8152,0,49,0,0.00000000,0.00000000,0,0,0,0,-255,0,0,0,0,65.7,12.92,8.48844,4.43156
224,88,112,0.982333,16.7896,0,46,0,0.00000000,0.00000000,0,0,0,0,-255,0,0,0,0,65.7,12.92,8.48844,4.43156
225,88,112,0.987067,16.7224,0,41,0,0.00000000,0.00000000,0,0,0,0,-255,0,0,0,0,66,12.92,8.5272,4.3928
226,0,110,0.991805,16.7176,0,50,0,0.00000000,0.00000000,0,0,0,0,-255,0,0,0,0,66,12.92,8.5272,4.3928
227,86,108,0.996711,16.7469,0,50,0,0.00000000,0.00000000,0,0,0,0,-255,0,0,0,0,66.1,12.92,8.54012,4.37988
228,86,107,1.00143,16.6864,0,37,0,0.00000000,0.00000000,0,0,0,0,-255,0,0,0,0,66.1,12.92,8.54012,4.37988
229,86,105,1.00528,16.6731,0,50,0,0.00000000,0.00000000,0,0,0,0,-255,0,0,0,0,66,12.92,8.5272,4.3928
230,86,105,1.01002,16.7043,0,50,0,0.00000000,0.00000000,0,0,0,0,-255,0,0,0,0,66,12.92,8.5272,4.3928
231,88,105,1.01489,16.7312,0,49,0,0.00000000,0.00000000,0,0,0,0,-255,0,0,0,0,66,12.92,8.5272,4.3928
232,88,105,1.01968,16.7494,0,49,0,0.00000000,0.00000000,0,0,0,0,-255,0,0,0,0,66,12.92,8.5272,4.3928
233,88,106,1.02447,16.7664,0,49,0,0.00000000,0.00000000,0,0,0,0,-255,0,0,0,0,66.2,12.92,8.55304,4.36696
234,88,107,1.02925,16.7823,0,49,0,0.00000000,0.00000000,0,0,0,0,-255,0,0,0,0,66.2,12.92,8.55304,4.36696
235,88,109,1.03405,16.8001,0,50,0,0.00000000,0.00000000,0,0,0,0,-255,0,0,0,0,66.5,12.92,8.5918,4.3282
236,88,109,1.03891,16.8236,0,50,0,0.00000000,0.00000000,0,0,0,0,-255,0,0,0,0,66.5,12.92,8.5918,4.3282
237,89,109,1.04284,16.8416,0,50,0,0.00000000,0.00000000,0,0,0,0,-255,0,0,0,0,66.6,12.92,8.60472,4.31528
238,89,109,1.04766,16.8603,0,50,0,0.00000000,0.00000000,0,0,0,0,-255,0,0,0,0,66.6,12.92,8.60472,4.31528
239,89,106,1.05253,16.8732,0,49,0,0.00000000,0.00000000,0,0,0,0,-255,0,0,0,0,66.6,12.92,8.60472,4.31528
240,89,105,1.0573,16.8553,0,46,0,0.00000000,0.00000000,0,0,0,0,-255,0,0,0,0,66.4,12.92,8.57888,4.34112
241,89,106,1.06204,16.8291,0,51,0,0.00000000,0.00000000,0,0,0,0,-255,0,0,0,0,66.2,12.92,8.55304,4.36696
242,0,105,1.06692,16.8564,0,51,0,0.00000000,0.00000000,0,0,0,0,-255,0,0,0,0,66.2,12.92,8.55304,4.36696
243,86,106,1.07171,16.8684,0,49,0,0.00000000,0.00000000,0,0,0,0,-255,0,0,0,0,65.8,12.92,8.50136,4.41864
244,87,106,1.07563,16.8772,0,50,0,0.00000000,0.00000000,0,0,0,0,-255,0,0,0,0,65.8,12.92,8.50136,4.41864
245,87,107,1.08049,16.8957,0,50,0,0.00000000,0.00000000,0,0,0,0,-255,0,0,0,0,65.8,12.92,8.50136,4.41864
246,88,107,1.08538,16.9074,0,50,0,0.00000000,0.00000000,0,0,0,0,-255,0,0,0,0,65.4,12.92,8.44968,4.47032
247,88,107,1.0902,16.9238,0,50,0,0.00000000,0.00000000,0,0,0,0,-255,0,0,0,0,65.1,12.92,8.41092,4.50908
248,89,108,1.09513,16.9375,0,50,0,0.00000000,0.00000000,0,0,0,0,-255,0,0,0,0,65.1,12.92,8.41092,4.50908
249,89,109,1.09995,16.9397,0,45,0,0.00000000,0.00000000,0,0,0,0,-255,0,0,0,0,65,12.93,8.4045,4.5255
250,89,109,1.10389,16.8586,0,37,0,0.00000000,0.00000000,0,0,0,0,-255,0,0,0,0,65,12.93,8.4045,4.5255
251,89,108,1.10874,16.769,0,37,0,0.00000000,0.00000000,0,0,0,0,-255,0,0,0,0,65,12.93,8.4045,4.5255
252,0,107,1.1136,16.7503,0,49,0,0.00000000,0.00000000,0,0,0,0,-255,0,0,0,0,64.8,12.92,8.37216,4.54784
253,90,106,1.11838,16.7672,0,49,0,0.00000000,0.00000000,0,0,0,0,-255,0,0,0,0,64.1,12.92,8.28172,4.63828
254,90,105,1.12316,16.783,0,49,0,0.00000000,0.00000000,0,0,0,0,-255,0,0,0,0,64.1,12.92,8.28172,4.63828
255,90,104,1.1279,16.7039,0,38,0,0.00000000,0.00000000,0,0,0,0,-255,0,0,0,0,63.6,12.92,8.21712,4.70288
256,90,104,1.13263,16.719,0,49,0,0.00000000,0.00000000,0,0,0,0,-255,0,0,0,0,63.6,12.92,8.21712,4.70288
257,89,105,1.1374,16.7417,0,49,0,0.00000000,0.00000000,0,0,0,0,-255,0,0,0,0,63.3,12.92,8.17836,4.74164
258,89,105,1.14133,16.6801,0,38,0,0.00000000,0.00000000,0,0,0,0,-255,0,0,0,0,63.3,12.92,8.17836,4.74164
259,89,105,1.14625,16.6649,0,50,0,0.00000000,0.00000000,0,0,0,0,-255,0,0,0,0,63.3,12.92,8.17836,4.74164
260,89,106,1.15115,16.6977,0,50,0,0.00000000,0.00000000,0,0,0,0,-255,0,0,0,0,63.3,12.92,8.17836,4.74164
261,99,107,1.15598,16.7192,0,49,0,0.00000000,0.00000000,0,0,0,0,-255,0,0,0,0,63.3,12.93,8.18469,4.74531
262,100,108,1.15976,16.739,0,50,0,0.00000000,0.00000000,0,0,0,0,-255,0,0,0,0,63.3,12.93,8.18469,4.74531
263,98,108,1.16456,16.7663,0,50,0,0.00000000,0.00000000,0,0,0,0,-255,0,0,0,0,63.5,12.93,8.21055,4.71945
264,95,108,1.1693,16.7795,0,38,0,0.00000000,0.00000000,0,0,0,0,-255,0,0,0,0,63.5,12.93,8.21055,4.71945
265,95,108,1.17405,16.7477,0,37,0,0.00000000,0.00000000,0,0,0,0,-255,0,0,0,0,63.5,12.93,8.21055,4.71945
266,95,108,1.17887,16.6608,0,49,0,0.00000000,0.00000000,0,0,0,0,-255,0,0,0,0,63.5,12.93,8.21055,4.71945
267,92,108,1.18358,16.6889,0,49,0,0.00000000,0.00000000,0,0,0,0,-255,0,0,0,0,63.1,12.93,8.15883,4.77117
268,92,108,1.18838,16.7167,0,50,0,0.00000000,0.00000000,0,0,0,0,-255,0,0,0,0,63.1,12.93,8.15883,4.77117
269,92,108,1.19316,16.7453,0,50,0,0.00000000,0.00000000,0,0,0,0,-255,0,0,0,0,62.5,12.93,8.08125,4.84875
270,93,108,1.19789,16.7597,0,38,0,0.00000000,0.00000000,0,0,0,0,-255,0,0,0,0,62.5,12.93,8.08125,4.84875
271,93,108,1.20259,16.7307,0,49,0,0.00000000,0.00000000,0,0,0,0,-255,0,0,0,0,62.4,12.93,8.06832,4.86168
272,93,110,1.20731,16.7487,0,49,0,0.00000000,0.00000000,0,0,0,0,-255,0,0,0,0,62.4,12.93,8.06832,4.86168
273,93,110,1.21123,16.6974,0,47,0,0.00000000,0.00000000,0,0,0,0,-255,0,0,0,0,62.6,12.93,8.09418,4.83582
274,93,110,1.21601,16.7058,0,50,0,0.00000000,0.00000000,0,0,0,0,-255,0,0,0,0,62.6,12.93,8.09418,4.83582
275,93,109,1.2208,16.7351,0,50,0,0.00000000,0.00000000,0,0,0,0,-255,0,0,0,0,63,12.93,8.1459,4.7841
276,93,108,1.22564,16.7629,0,50,0,0.00000000,0.00000000,0,0,0,0,-255,0,0,0,0,63,12.93,8.1459,4.7841
277,93,106,1.23039,16.7826,0,50,0,0.00000000,0.00000000,0,0,0,0,-255,0,0,0,0,63.2,12.93,8.17176,4.75824
278,93,104,1.23521,16.8004,0,49,0,0.00000000,0.00000000,0,0,0,0,-255,0,0,0,0,63.2,12.93,8.17176,4.75824
279,93,104,1.23899,16.8113,0,49,0,0.00000000,0.00000000,0,0,0,0,-255,0,0,0,0,63.4,12.93,8.19762,4.73238
280,94,104,1.24382,16.7723,0,38,0,0.00000000,0.00000000,0,0,0,0,-255,0,0,0,0,63.4,12.93,8.19762,4.73238
281,94,104,1.24853,16.6582,0,24,0,0.00000000,0.00000000,0,0,0,0,-255,0,0,0,0,63.3,12.93,8.18469,4.74531
282,94,105,1.25325,16.558,0,38,0,0.00000000,0.00000000,0,0,0,0,-255,0,0,0,0,63.3,12.93,8.18469,4.74531
283,0,105,1.25787,16.5168,0,50,0,0.00000000,0.00000000,0,0,0,0,-255,0,0,0,0,63.2,12.93,8.17176,4.75824
284,0,105,1.26273,16.5593,0,50,0,0.00000000,0.00000000,0,0,0,0,-255,0,0,0,0,63.2,12.93,8.17176,4.75824
285,91,105,1.26744,16.5978,0,50,0,0.00000000,0.00000000,0,0,0,0,-255,0,0,0,0,63.2,12.93,8.17176,4.75824
286,91,103,1.27219,16.6341,0,50,0,0.00000000,0.00000000,0,0,0,0,-255,0,0,0,0,63.2,12.93,8.17176,4.75824
287,91,102,1.27604,16.6502,0,46,0,0.00000000,0.00000000,0,0,0,0,-255,0,0,0,0,63.5,12.93,8.21055,4.71945
288,91,102,1.28075,16.6592,0,49,0,0.00000000,0.00000000,0,0,0,0,-255,0,0,0,0,63.5,12.93,8.21055,4.71945
289,90,102,1.28553,16.682,0,49,0,0.00000000,0.00000000,0,0,0,0,-255,0,0,0,0,63.8,12.93,8.24934,4.68066
290,90,103,1.29038,16.6967,0,38,0,0.00000000,0.00000000,0,0,0,0,-255,0,0,0,0,63.8,12.93,8.24934,4.68066
291,90,104,1.29514,16.6189,0,38,0,0.00000000,0.00000000,0,0,0,0,-255,0,0,0,0,64.1,12.93,8.28813,4.64187
292,90,105,1.29998,16.6389,0,50,0,0.00000000,0.00000000,0,0,0,0,-255,0,0,0,0,64.1,12.93,8.28813,4.64187
293,91,104,1.30375,16.6628,0,49,0,0.00000000,0.00000000,0,0,0,0,-255,0,0,0,0,63.9,12.93,8.26227,4.66773
294,91,103,1.30852,16.679,0,43,0,0.00000000,0.00000000,0,0,0,0,-255,0,0,0,0,63.9,12.93,8.26227,4.66773
295,91,103,1.31332,16.6654,0,51,0,0.00000000,0.00000000,0,0,0,0,-255,0,0,0,0,63.3,12.93,8.18469,4.74531
296,91,102,1.31816,16.6938,0,49,0,0.00000000,0.00000000,0,0,0,0,-255,0,0,0,0,63.3,12.93,8.18469,4.74531
297,91,102,1.32293,16.72,0,49,0,0.00000000,0.00000000,0,0,0,0,-255,0,0,0,0,62.8,12.93,8.12004,4.80996
298,91,101,1.32775,16.7391,0,49,0,0.00000000,0.00000000,0,0,0,0,-255,0,0,0,0,62.8,12.93,8.12004,4.80996
299,91,101,1.33158,16.7533,0,49,0,0.00000000,0.00000000,0,0,0,0,-255,0,0,0,0,62.6,12.93,8.09418,4.83582
300,92,102,1.33633,16.7433,0,28,0,0.00000000,0.00000000,0,0,0,0,-255,0,0,0,0,62.6,12.93,8.09418,4.83582
301,92,103,1.34099,16.3939,0,23,0,0.00000000,0.00000000,0,0,0,0,-255,0,0,0,0,62.4,12.92,8.06208,4.85792
302,0,104,1.34564,16.3306,0,42,0,0.00000000,0.00000000,0,0,0,0,-255,0,0,0,0,62.4,12.92,8.06208,4.85792
303,0,104,1.35029,16.2933,0,41,0,0.00000000,0.00000000,0,0,0,0,-255,0,0,0,0,62.1,12.93,8.02953,4.90047
304,0,104,1.35488,16.2109,0,19,0,0.00000000,0.00000000,0,0,0,0,-255,0,0,0,0,62.1,12.93,8.02953,4.90047
305,0,104,1.35944,15.7927,0,0,0,0.00000000,0.00000000,0,0,0,0,-255,0,0,0,0,61.9,12.94,8.00986,4.93014
306,0,104,1.36384,15.3725,0,0,0,0.00000000,0.00000000,0,0,0,0,-255,0,0,0,0,61.9,12.94,8.00986,4.93014
307,0,103,1.36811,14.9676,0,0,0,0.00000000,0.00000000,0,0,0,0,-255,0,0,0,0,61.7,12.93,7.97781,4.95219
308,0,103,1.37226,14.5768,0,0,0,0.00000000,0.00000000,0,0,0,0,-255,0,0,0,0,61.7,12.93,7.97781,4.95219
309,0,104,1.37563,14.2607,0,0,0,0.00000000,0.00000000,0,0,0,0,-255,0,0,0,0,61.7,12.93,7.97781,4.95219
310,0,104,1.37981,13.9584,0,8,0,0.00000000,0.00000000,0,0,0,0,-255,0,0,0,0,61.7,12.93,7.97781,4.95219
311,0,105,1.38372,13.9159,0,32,0,0.00000000,0.00000000,0,0,0,0,-255,0,0,0,0,60.9,12.93,7.87437,5.05563
312,0,107,1.3877,13.9324,0,32,0,0.00000000,0.00000000,0,0,0,0,-255,0,0,0,0,60.9,12.93,7.87437,5.05563
313,0,107,1.39164,13.6939,0,0,0,0.00000000,0.00000000,0,0,0,0,-255,0,0,0,0,60.8,12.92,7.85536,5.06464
314,0,109,1.39547,13.3393,0,0,0,0.00000000,0.00000000,0,0,0,0,-255,0,0,0,0,60.8,12.92,7.85536,5.06464
315,0,109,1.39916,12.9986,0,0,0,0.00000000,0.00000000,0,0,0,0,-255,0,0,0,0,60.7,12.92,7.84244,5.07756
316,0,109,1.40279,12.6643,0,0,0,0.00000000,0.00000000,0,0,0,0,-255,0,0,0,0,60.7,12.92,7.84244,5.07756
317,0,109,1.40638,12.3347,0,0,0,0.00000000,0.00000000,0,0,0,0,-255,0,0,0,0,60.3,12.92,7.79076,5.12924
318,0,109,1.40912,12.0833,0,0,0,0.00000000,0.00000000,0,0,0,0,-255,0,0,0,0,60.3,12.92,7.79076,5.12924
319,0,108,1.41248,11.7753,0,0,0,0.00000000,0.00000000,0,0,0,0,-255,0,0,0,0,60.1,12.92,7.76492,5.15508
320,0,107,1.41582,11.4685,0,0,0,0.00000000,0.00000000,0,0,0,0,-255,0,0,0,0,60.1,12.92,7.76492,5.15508
321,0,106,1.41907,11.1702,0,0,0,0.00000000,0.00000000,0,0,0,0,-255,0,0,0,0,60.2,12.92,7.77784,5.14216
322,0,106,1.42225,10.8786,0,0,0,0.00000000,0.00000000,0,0,0,0,-255,0,0,0,0,60.2,12.92,7.77784,5.14216
323,0,106,1.42535,10.5934,0,0,0,0.00000000,0.00000000,0,0,0,0,-255,0,0,0,0,60.7,12.92,7.84244,5.07756
324,0,107,1.42833,10.3187,0,0,0,0.00000000,0.00000000,0,0,0,0,-255,0,0,0,0,60.7,12.92,7.84244,5.07756
325,0,107,1.43125,10.0488,0,0,0,0.00000000,0.00000000,0,0,0,0,-255,0,0,0,0,61.8,12.92,7.98456,4.93544
326,0,107,1.43404,9.78913,0,0,0,0.00000000,0.00000000,0,0,0,0,-255,0,0,0,0,61.8,12.92,7.98456,4.93544
327,0,106,1.43626,9.58286,0,0,0,0.00000000,0.00000000,0,0,0,0,-255,0,0,0,0,62.8,12.94,8.12632,4.81368
328,0,106,1.4389,9.33592,0,0,0,0.00000000,0.00000000,0,0,0,0,-255,0,0,0,0,62.8,12.94,8.12632,4.81368
329,0,106,1.44159,9.08249,0,0,0,0.00000000,0.00000000,0,0,0,0,-255,0,0,0,0,63.9,12.94,8.26866,4.67134
330,0,105,1.44414,8.84098,0,0,0,0.00000000,0.00000000,0,0,0,0,-255,0,0,0,0,63.9,12.94,8.26866,4.67134
331,0,104,1.44661,8.60494,0,0,0,0.00000000,0.00000000,0,0,0,0,-255,0,0,0,0,65,12.95,8.4175,4.5325
332,0,100,1.44908,8.36693,0,0,0,0.00000000,0.00000000,0,0,0,0,-255,0,0,0,0,65,12.95,8.4175,4.5325
333,0,97,1.45143,8.13895,0,0,0,0.00000000,0.00000000,0,0,0,0,-255,0,0,0,0,65.8,12.95,8.5211,4.4289
334,0,96,1.45326,7.95986,0,0,0,0.00000000,0.00000000,0,0,0,0,-255,0,0,0,0,65.8,12.95,8.5211,4.4289
335,0,97,1.45555,7.73433,0,0,0,0.00000000,0.00000000,0,0,0,0,-255,0,0,0,0,66.3,12.95,8.58585,4.36415
336,0,99,1.45773,7.51676,0,0,0,0.00000000,0.00000000,0,0,0,0,-255,0,0,0,0,66.3,12.95,8.58585,4.36415
337,0,102,1.45985,7.30275,0,0,0,0.00000000,0.00000000,0,0,0,0,-255,0,0,0,0,66.8,12.94,8.64392,4.29608
338,0,104,1.46188,7.09534,0,0,0,0.00000000,0.00000000,0,0,0,0,-255,0,0,0,0,66.8,12.94,8.64392,4.29608
339,0,106,1.46385,6.8914,0,0,0,0.00000000,0.00000000,0,0,0,0,-255,0,0,0,0,67.1,12.94,8.68274,4.25726
340,0,106,1.46577,6.68937,0,0,0,0.00000000,0.00000000,0,0,0,0,-255,0,0,0,0,67.1,12.94,8.68274,4.25726
341,0,106,1.46765,6.48948,0,0,0,0.00000000,0.00000000,0,0,0,0,-255,0,0,0,0,67,12.93,8.6631,4.2669
342,0,105,1.46947,6.29194,0,0,0,0.00000000,0.00000000,0,0,0,0,-255,0,0,0,0,67,12.93,8.6631,4.2669
343,0,104,1.47127,6.09367,0,0,0,0.00000000,0.00000000,0,0,0,0,-255,0,0,0,0,66.6,12.94,8.61804,4.32196
344,0,104,1.47265,5.93986,0,0,0,0.00000000,0.00000000,0,0,0,0,-255,0,0,0,0,66.6,12.94,8.61804,4.32196
345,0,104,1.47432,5.74955,0,0,0,0.00000000,0.00000000,0,0,0,0,-255,0,0,0,0,66.4,12.94,8.59216,4.34784
346,0,105,1.47592,5.56474,0,0,0,0.00000000,0.00000000,0,0,0,0,-255,0,0,0,0,66.4,12.94,8.59216,4.34784
347,0,105,1.47751,5.37653,0,0,0,0.00000000,0.00000000,0,0,0,0,-255,0,0,0,0,66.5,12.95,8.61175,4.33825
348,0,105,1.479,5.19534,0,0,0,0.00000000,0.00000000,0,0,0,0,-255,0,0,0,0,66.5,12.95,8.61175,4.33825
349,0,106,1.48045,5.0158,0,0,0,0.00000000,0.00000000,0,0,0,0,-255,0,0,0,0,66.7,12.96,8.64432,4.31568
350,0,106,1.48187,4.83567,0,0,0,0.00000000,0.00000000,0,0,0,0,-255,0,0,0,0,66.7,12.96,8.64432,4.31568
351,0,103,1.48322,4.66081,0,0,0,0.00000000,0.00000000,0,0,0,0,-255,0,0,0,0,67.2,12.97,8.71584,4.25416
352,0,101,1.4845,4.48912,0,0,0,0.00000000,0.00000000,0,0,0,0,-255,0,0,0,0,67.2,12.97,8.71584,4.25416
353,0,100,1.48549,4.35413,0,0,0,0.00000000,0.00000000,0,0,0,0,-255,0,0,0,0,67.8,12.96,8.78688,4.17312
354,0,96,1.4867,4.18319,0,0,0,0.00000000,0.00000000,0,0,0,0,-255,0,0,0,0,67.8,12.96,8.78688,4.17312
355,0,96,1.48786,4.01577,0,0,0,0.00000000,0.00000000,0,0,0,0,-255,0,0,0,0,68.5,12.96,8.8776,4.0824
356,0,97,1.48897,3.84993,0,0,0,0.00000000,0.00000000,0,0,0,0,-255,0,0,0,0,68.5,12.96,8.8776,4.0824
357,0,98,1.49005,3.68217,0,0,0,0.00000000,0.00000000,0,0,0,0,-255,0,0,0,0,69,12.97,8.9493,4.0207
358,0,99,1.49109,3.5148,0,0,0,0.00000000,0.00000000,0,0,0,0,-255,0,0,0,0,69,12.97,8.9493,4.0207
359,0,100,1.49211,3.34426,0,0,0,0.00000000,0.00000000,0,0,0,0,-255,0,0,0,0,69.6,12.97,9.02712,3.94288
360,0,101,1.49305,3.29277,0,12,0,0.00000000,0.00000000,0,0,0,0,-255,0,0,0,0,69.6,12.97,9.02712,3.94288
361,0,102,1.49405,3.87574,0,28,0,0.00000000,0.00000000,0,0,0,0,-255,0,0,0,0,70,12.98,9.086,3.894
362,47,102,1.49528,4.84292,0,37,0,0.00000000,0.00000000,0,0,0,0,-255,0,0,0,0,70,12.98,9.086,3.894
363,73,102,1.49679,5.8682,0,51,0,0.00000000,0.00000000,0,0,0,0,-255,0,0,0,0,70.7,12.99,9.18393,3.80607
364,81,101,1.49829,7.23097,0,93,0,0.00000000,0.00000000,0,0,0,0,-255,0,0,0,0,70.7,12.99,9.18393,3.80607
365,87,101,1.50061,8.95891,0,100,0,0.00000000,0.00000000,0,0,0,0,-255,0,0,0,0,71.5,13,9.295,3.705
366,89,103,1.50333,10.3423,0,100,0,0.00000000,0.00000000,0,0,0,0,-255,0,0,0,0,71.5,13,9.295,3.705
367,93,104,1.5064,11.5034,0,99,0,0.00000000,0.00000000,0,0,0,0,-255,0,0,0,0,72.2,13.01,9.39322,3.61678
368,98,105,1.50985,12.5407,0,100,0,0.00000000,0.00000000,0,0,0,0,-255,0,0,0,0,72.2,13.01,9.39322,3.61678
369,94,108,1.51369,13.4791,0,100,0,0.00000000,0.00000000,0,0,0,0,-255,0,0,0,0,72.9,13.02,9.49158,3.52842
370,95,110,1.51687,14.1381,0,100,0,0.00000000,0.00000000,0,0,0,0,-255,0,0,0,0,72.9,13.02,9.49158,3.52842
371,96,112,1.52105,14.8807,0,99,0,0.00000000,0.00000000,0,0,0,0,-255,0,0,0,0,73,13.01,9.4973,3.5127
372,96,112,1.52543,15.5434,0,99,0,0.00000000,0.00000000,0,0,0,0,-255,0,0,0,0,73,13.01,9.4973,3.5127
373,95,113,1.52989,16.1338,0,99,0,0.00000000,0.00000000,0,0,0,0,-255,0,0,0,0,72.3,13,9.399,3.601
374,95,113,1.53448,16.6702,0,100,0,0.00000000,0.00000000,0,0,0,0,-255,0,0,0,0,72.3,13,9.399,3.601
375,95,113,1.5393,17.1617,0,99,0,0.00000000,0.00000000,0,0,0,0,-255,0,0,0,0,70.7,12.98,9.17686,3.80314
376,95,114,1.54427,17.6101,0,99,0,0.00000000,0.00000000,0,0,0,0,-255,0,0,0,0,70.7,12.98,9.17686,3.80314
377,94,115,1.54932,18.0171,0,99,0,0.00000000,0.00000000,0,0,0,0,-255,0,0,0,0,68.7,12.97,8.91039,4.05961
378,94,116,1.55448,18.3892,0,99,0,0.00000000,0.00000000,0,0,0,0,-255,0,0,0,0,68.7,12.97,8.91039,4.05961
379,95,117,1.5587,18.6656,0,99,0,0.00000000,0.00000000,0,0,0,0,-255,0,0,0,0,66.2,12.95,8.5729,4.3771
380,96,119,1.56397,18.9802,0,99,0,0.00000000,0.00000000,0,0,0,0,-255,0,0,0,0,66.2,12.95,8.5729,4.3771
381,96,119,1.56961,19.2843,0,99,0,0.00000000,0.00000000,0,0,0,0,-255,0,0,0,0,63.9,12.94,8.26866,4.67134
382,95,123,1.57518,19.5555,0,99,0,0.00000000,0.00000000,0,0,0,0,-255,0,0,0,0,63.9,12.94,8.26866,4.67134
383,94,124,1.58096,19.8112,0,100,0,0.00000000,0.00000000,0,0,0,0,-255,0,0,0,0,61.4,12.93,7.93902,4.99098
384,94,124,1.58665,20.0422,0,99,0,0.00000000,0.00000000,0,0,0,0,-255,0,0,0,0,61.4,12.93,7.93902,4.99098
385,94,124,1.59129,20.2117,0,99,0,0.00000000,0.00000000,0,0,0,0,-255,0,0,0,0,59.3,12.92,7.66156,5.25844
386,95,125,1.59706,20.4071,0,99,0,0.00000000,0.00000000,0,0,0,0,-255,0,0,0,0,59.3,12.92,7.66156,5.25844
387,94,124,1.60285,20.5897,0,100,0,0.00000000,0.00000000,0,0,0,0,-255,0,0,0,0,57.8,12.91,7.46198,5.44802
388,94,125,1.60868,20.7533,0,99,0,0.00000000,0.00000000,0,0,0,0,-255,0,0,0,0,57.8,12.91,7.46198,5.44802
389,97,125,1.61469,20.9078,0,99,0,0.00000000,0.00000000,0,0,0,0,-255,0,0,0,0,57,12.91,7.3587,5.5513
390,98,125,1.62061,21.0455,0,99,0,0.00000000,0.00000000,0,0,0,0,-255,0,0,0,0,57,12.91,7.3587,5.5513
391,98,125,1.62657,21.1919,0,112,0,0.00000000,0.00000000,0,0,0,0,-255,0,0,0,0,56.6,12.91,7.30706,5.60294
392,98,126,1.63256,21.4504,0,124,0,0.00000000,0.00000000,0,0,0,0,-255,0,0,0,0,56.6,12.91,7.30706,5.60294
393,97,126,1.63865,21.7297,0,124,0,0.00000000,0.00000000,0,0,0,0,-255,0,0,0,0,56.8,12.92,7.33856,5.58144
394,96,126,1.64481,21.9854,0,125,0,0.00000000,0.00000000,0,0,0,0,-255,0,0,0,0,56.8,12.92,7.33856,5.58144
395,95,126,1.64994,22.1781,0,124,0,0.00000000,0.00000000,0,0,0,0,-255,0,0,0,0,57.5,12.92,7.429,5.491
396,96,126,1.65625,22.3935,0,124,0,0.00000000,0.00000000,0,0,0,0,-255,0,0,0,0,57.5,12.92,7.429,5.491
397,96,126,1.66277,22.5979,0,124,0,0.00000000,0.00000000,0,0,0,0,-255,0,0,0,0,57.5,12.92,7.429,5.491
398,97,127,1.66924,22.7791,0,124,0,0.00000000,0.00000000,0,0,0,0,-255,0,0,0,0,58.3,12.92,7.53236,5.38764
399,97,128,1.67569,22.9429,0,124,0,0.00000000,0.00000000,0,0,0,0,-255,0,0,0,0,59,12.91,7.6169,5.2931
400,96,128,1.68226,23.0976,0,124,0,0.00000000,0.00000000,0,0,0,0,-255,0,0,0,0,59,12.91,7.6169,5.2931
401,97,130,1.68883,23.2354,0,124,0,0.00000000,0.00000000,0,0,0,0,-255,0,0,0,0,59.7,12.92,7.71324,5.20676
402,97,131,1.69549,23.3627,0,124,0,0.00000000,0.00000000,0,0,0,0,-255,0,0,0,0,59.7,12.92,7.71324,5.20676
403,97,130,1.7021,23.4778,0,124,0,0.00000000,0.00000000,0,0,0,0,-255,0,0,0,0,59.7,12.91,7.70727,5.20273
404,97,129,1.70873,23.5844,0,124,0,0.00000000,0.00000000,0,0,0,0,-255,0,0,0,0,59.7,12.91,7.70727,5.20273
405,96,125,1.71553,23.6828,0,124,0,0.00000000,0.00000000,0,0,0,0,-255,0,0,0,0,58.9,12.91,7.60399,5.30601
406,96,124,1.72082,23.7564,0,125,0,0.00000000,0.00000000,0,0,0,0,-255,0,0,0,0,58.9,12.91,7.60399,5.30601
407,96,120,1.72758,23.8425,0,124,0,0.00000000,0.00000000,0,0,0,0,-255,0,0,0,0,57.6,12.91,7.43616,5.47384
408,96,119,1.73438,23.9181,0,124,0,0.00000000,0.00000000,0,0,0,0,-255,0,0,0,0,57.6,12.91,7.43616,5.47384
409,96,117,1.74127,23.9901,0,125,0,0.00000000,0.00000000,0,0,0,0,-255,0,0,0,0,56.7,12.91,7.31997,5.59003
410,96,117,1.7481,24.0545,0,125,0,0.00000000,0.00000000,0,0,0,0,-255,0,0,0,0,56.7,12.91,7.31997,5.59003
411,96,117,1.75491,24.1138,0,124,0,0.00000000,0.00000000,0,0,0,0,-255,0,0,0,0,55.9,12.91,7.21669,5.69331
412,96,117,1.7618,24.1668,0,124,0,0.00000000,0.00000000,0,0,0,0,-255,0,0,0,0,55.9,12.91,7.21669,5.69331
413,96,117,1.76855,24.2175,0,125,0,0.00000000,0.00000000,0,0,0,0,-255,0,0,0,0,55.7,12.92,7.19644,5.72356
414,96,117,1.77539,24.2644,0,124,0,0.00000000,0.00000000,0,0,0,0,-255,0,0,0,0,55.7,12.92,7.19644,5.72356
415,96,118,1.78228,24.3058,0,124,0,0.00000000,0.00000000,0,0,0,0,-255,0,0,0,0,56,12.92,7.2352,5.6848
416,96,118,1.78915,24.3422,0,124,0,0.00000000,0.00000000,0,0,0,0,-255,0,0,0,0,56,12.92,7.2352,5.6848
417,97,118,1.79596,24.3753,0,124,0,0.00000000,0.00000000,0,0,0,0,-255,0,0,0,0,56.6,12.93,7.31838,5.61162
418,97,118,1.80292,24.4089,0,124,0,0.00000000,0.00000000,0,0,0,0,-255,0,0,0,0,56.6,12.93,7.31838,5.61162
419,96,120,1.80986,24.4369,0,124,0,0.00000000,0.00000000,0,0,0,0,-255,0,0,0,0,56.7,12.93,7.33131,5.59869
420,96,121,1.8168,24.4768,0,131,0,0.00000000,0.00000000,0,0,0,0,-255,0,0,0,0,56.7,12.93,7.33131,5.59869
421,97,122,1.82228,24.5991,0,149,0,0.00000000,0.00000000,0,0,0,0,-255,0,0,0,0,56.7,12.93,7.33131,5.59869
422,96,123,1.82946,24.7785,0,150,0,0.00000000,0.00000000,0,0,0,0,-255,0,0,0,0,56.7,12.93,7.33131,5.59869
423,96,124,1.83647,24.9367,0,149,0,0.00000000,0.00000000,0,0,0,0,-255,0,0,0,0,56.7,12.93,7.33131,5.59869
424,96,124,1.84355,25.0792,0,149,0,0.00000000,0.00000000,0,0,0,0,-255,0,0,0,0,56.7,12.93,7.33131,5.59869
425,96,125,1.85079,25.2146,0,150,0,0.00000000,0.00000000,0,0,0,0,-255,0,0,0,0,56.6,12.93,7.31838,5.61162
426,96,125,1.85794,25.3401,0,150,0,0.00000000,0.00000000,0,0,0,0,-255,0,0,0,0,56.6,12.93,7.31838,5.61162
427,96,125,1.86507,25.4498,0,150,0,0.00000000,0.00000000,0,0,0,0,-255,0,0,0,0,56.4,12.93,7.29252,5.63748
428,96,126,1.87221,25.5478,0,149,0,0.00000000,0.00000000,0,0,0,0,-255,0,0,0,0,56.4,12.93,7.29252,5.63748
429,96,128,1.87961,25.6369,0,149,0,0.00000000,0.00000000,0,0,0,0,-255,0,0,0,0,56.4,12.93,7.29252,5.63748
430,95,129,1.88684,25.7158,0,149,0,0.00000000,0.00000000,0,0,0,0,-255,0,0,0,0,56.3,12.93,7.27959,5.65041
431,96,130,1.89409,25.7879,0,149,0,0.00000000,0.00000000,0,0,0,0,-255,0,0,0,0,56.3,12.93,7.27959,5.65041
433,96,131,1.90136,25.8535,0,149,0,0.00000000,0.00000000,0,0,0,0,-255,0,0,0,0,56,12.92,7.2352,5.6848
434,96,132,1.90874,25.9161,0,150,0,0.00000000,0.00000000,0,0,0,0,-255,0,0,0,0,56,12.92,7.2352,5.6848
435,95,132,1.9147,25.9658,0,150,0,0.00000000,0.00000000,0,0,0,0,-255,0,0,0,0,56,12.92,7.2352,5.6848
436,95,132,1.92206,26.0185,0,150,0,0.00000000,0.00000000,0,0,0,0,-255,0,0,0,0,55.2,12.92,7.13184,5.78816
437,94,132,1.92954,26.0709,0,150,0,0.00000000,0.00000000,0,0,0,0,-255,0,0,0,0,55.2,12.92,7.13184,5.78816
438,94,132,1.93697,26.117,0,150,0,0.00000000,0.00000000,0,0,0,0,-255,0,0,0,0,54.7,12.92,7.06724,5.85276
439,94,132,1.94434,26.1539,0,150,0,0.00000000,0.00000000,0,0,0,0,-255,0,0,0,0,54.7,12.92,7.06724,5.85276
440,93,132,1.95169,26.1927,0,149,0,0.00000000,0.00000000,0,0,0,0,-255,0,0,0,0,54.5,12.92,7.0414,5.8786
441,93,132,1.95932,26.2256,0,150,0,0.00000000,0.00000000,0,0,0,0,-255,0,0,0,0,54.5,12.92,7.0414,5.8786
442,92,132,1.96681,26.2593,0,150,0,0.00000000,0.00000000,0,0,0,0,-255,0,0,0,0,54.5,12.92,7.0414,5.8786
443,92,132,1.97427,26.2897,0,150,0,0.00000000,0.00000000,0,0,0,0,-255,0,0,0,0,54.5,12.92,7.0414,5.8786
444,92,132,1.9816,26.3116,0,149,0,0.00000000,0.00000000,0,0,0,0,-255,0,0,0,0,54.9,12.93,7.09857,5.83143
445,92,132,1.98911,26.3339,0,149,0,0.00000000,0.00000000,0,0,0,0,-255,0,0,0,0,55.7,12.93,7.20201,5.72799
446,93,132,1.99505,26.3513,0,150,0,0.00000000,0.00000000,0,0,0,0,-255,0,0,0,0,55.7,12.93,7.20201,5.72799
447,92,132,2.0026,26.3737,0,150,0,0.00000000,0.00000000,0,0,0,0,-255,0,0,0,0,55.7,12.93,7.20201,5.72799
448,94,133,2.01009,26.3886,0,149,0,0.00000000,0.00000000,0,0,0,0,-255,0,0,0,0,56.3,12.92,7.27396,5.64604
449,94,133,2.01753,26.4057,0,150,0,0.00000000,0.00000000,0,0,0,0,-255,0,0,0,0,56.8,12.93,7.34424,5.58576
450,94,133,2.02512,26.4191,0,149,0,0.00000000,0.00000000,0,0,0,0,-255,0,0,0,0,56.8,12.93,7.34424,5.58576
451,93,133,2.03261,26.4324,0,150,0,0.00000000,0.00000000,0,0,0,0,-255,0,0,0,0,56.7,12.93,7.33131,5.59869
452,93,133,2.04014,26.5505,0,174,0,0.00000000,0.00000000,0,0,0,0,-255,0,0,0,0,56.7,12.93,7.33131,5.59869
453,93,133,2.04781,26.6939,0,173,0,0.00000000,0.00000000,0,0,0,0,-255,0,0,0,0,56.7,12.93,7.33131,5.59869
454,91,133,2.05552,26.8276,0,174,0,0.00000000,0.00000000,0,0,0,0,-255,0,0,0,0,56.3,12.93,7.27959,5.65041
455,91,133,2.06324,26.9535,0,174,0,0.00000000,0.00000000,0,0,0,0,-255,0,0,0,0,56.3,12.93,7.27959,5.65041
456,90,133,2.07086,27.0668,0,176,0,0.00000000,0.00000000,0,0,0,0,-255,0,0,0,0,55.8,12.93,7.21494,5.71506
457,92,132,2.07719,27.1541,0,175,0,0.00000000,0.00000000,0,0,0,0,-255,0,0,0,0,55.8,12.93,7.21494,5.71506
458,94,132,2.08492,27.2488,0,176,0,0.00000000,0.00000000,0,0,0,0,-255,0,0,0,0,55.3,12.93,7.15029,5.77971
459,95,130,2.0926,27.3337,0,175,0,0.00000000,0.00000000,0,0,0,0,-255,0,0,0,0,54.5,12.92,7.0414,5.8786
460,94,130,2.10046,27.4119,0,175,0,0.00000000,0.00000000,0,0,0,0,-255,0,0,0,0,54.5,12.92,7.0414,5.8786
461,92,129,2.10855,27.485,0,174,0,0.00000000,0.00000000,0,0,0,0,-255,0,0,0,0,53.8,12.92,6.95096,5.96904
462,91,128,2.11511,27.5379,0,174,0,0.00000000,0.00000000,0,0,0,0,-255,0,0,0,0,53.8,12.92,6.95096,5.96904
463,91,127,2.12303,27.5974,0,175,0,0.00000000,0.00000000,0,0,0,0,-255,0,0,0,0,53.8,12.92,6.95096,5.96904
464,91,127,2.13098,27.652,0,175,0,0.00000000,0.00000000,0,0,0,0,-255,0,0,0,0,53.1,12.92,6.86052,6.05948
465,91,127,2.13893,27.7013,0,175,0,0.00000000,0.00000000,0,0,0,0,-255,0,0,0,0,53.1,12.92,6.86052,6.05948
466,91,129,2.14684,27.7456,0,175,0,0.00000000,0.00000000,0,0,0,0,-255,0,0,0,0,51.2,12.93,6.62016,6.30984
467,93,130,2.15469,27.7833,0,175,0,0.00000000,0.00000000,0,0,0,0,-255,0,0,0,0,49.1,12.94,6.35354,6.58646
468,92,131,2.16255,27.8208,0,175,0,0.00000000,0.00000000,0,0,0,0,-255,0,0,0,0,49.1,12.94,6.35354,6.58646
469,92,133,2.17045,27.8549,0,175,0,0.00000000,0.00000000,0,0,0,0,-255,0,0,0,0,49.1,12.94,6.35354,6.58646
470,92,134,2.17691,27.8769,0,175,0,0.00000000,0.00000000,0,0,0,0,-255,0,0,0,0,48.5,12.94,6.2759,6.6641
471,92,135,2.18471,27.9054,0,175,0,0.00000000,0.00000000,0,0,0,0,-255,0,0,0,0,48.7,12.94,6.30178,6.63822
472,93,136,2.19274,27.9297,0,175,0,0.00000000,0.00000000,0,0,0,0,-255,0,0,0,0,48.7,12.94,6.30178,6.63822
473,92,137,2.20074,27.9527,0,175,0,0.00000000,0.00000000,0,0,0,0,-255,0,0,0,0,48.3,12.94,6.25002,6.68998
474,91,137,2.20876,27.9708,0,174,0,0.00000000,0.00000000,0,0,0,0,-255,0,0,0,0,48.3,12.94,6.25002,6.68998
475,91,137,2.21688,27.992,0,175,0,0.00000000,0.00000000,0,0,0,0,-255,0,0,0,0,48.3,12.94,6.25002,6.68998
476,91,137,2.22492,28.0104,0,175,0,0.00000000,0.00000000,0,0,0,0,-255,0,0,0,0,48.3,12.94,6.25002,6.68998
477,92,137,2.23302,28.0271,0,175,0,0.00000000,0.00000000,0,0,0,0,-255,0,0,0,0,49.4,12.94,6.39236,6.54764
478,92,138,2.2409,28.0379,0,174,0,0.00000000,0.00000000,0,0,0,0,-255,0,0,0,0,49.4,12.94,6.39236,6.54764
479,91,138,2.2488,28.0501,0,175,0,0.00000000,0.00000000,0,0,0,0,-255,0,0,0,0,50,12.94,6.47,6.47
480,92,139,2.2553,28.0606,0,175,0,0.00000000,0.00000000,0,0,0,0,-255,0,0,0,0,50,12.94,6.47,6.47
481,92,139,2.26315,28.0723,0,175,0,0.00000000,0.00000000,0,0,0,0,-255,0,0,0,0,49.9,12.95,6.46205,6.48795
482,93,139,2.27121,28.1416,0,199,0,0.00000000,0.00000000,0,0,0,0,-255,0,0,0,0,49.9,12.95,6.46205,6.48795
483,92,139,2.27924,28.2809,0,200,0,0.00000000,0.00000000,0,0,0,0,-255,0,0,0,0,50,12.95,6.475,6.475
484,92,139,2.28738,28.4127,0,200,0,0.00000000,0.00000000,0,0,0,0,-255,0,0,0,0,50,12.95,6.475,6.475
485,92,138,2.29552,28.5311,0,200,0,0.00000000,0.00000000,0,0,0,0,-255,0,0,0,0,50.5,12.95,6.53975,6.41025
486,91,138,2.30362,28.6318,0,199,0,0.00000000,0.00000000,0,0,0,0,-255,0,0,0,0,50.5,12.95,6.53975,6.41025
487,91,138,2.31171,28.7216,0,200,0,0.00000000,0.00000000,0,0,0,0,-255,0,0,0,0,51,12.95,6.6045,6.3455
488,89,138,2.31848,28.7936,0,200,0,0.00000000,0.00000000,0,0,0,0,-255,0,0,0,0,51,12.95,6.6045,6.3455
489,89,138,2.32685,28.8719,0,199,0,0.00000000,0.00000000,0,0,0,0,-255,0,0,0,0,50.8,12.96,6.58368,6.37632
490,89,138,2.33514,28.9406,0,200,0,0.00000000,0.00000000,0,0,0,0,-255,0,0,0,0,50.8,12.96,6.58368,6.37632
491,89,137,2.34326,29.0059,0,200,0,0.00000000,0.00000000,0,0,0,0,-255,0,0,0,0,50.8,12.96,6.58368,6.37632
492,89,138,2.35145,29.0648,0,199,0,0.00000000,0.00000000,0,0,0,0,-255,0,0,0,0,50.2,12.95,6.5009,6.4491
493,89,138,2.35972,29.1173,0,200,0,0.00000000,0.00000000,0,0,0,0,-255,0,0,0,0,50.1,12.95,6.48795,6.46205
494,90,138,2.36811,29.163,0,199,0,0.00000000,0.00000000,0,0,0,0,-255,0,0,0,0,50.1,12.95,6.48795,6.46205
495,90,139,2.37644,29.2072,0,200,0,0.00000000,0.00000000,0,0,0,0,-255,0,0,0,0,50.2,12.95,6.5009,6.4491
496,89,139,2.38304,29.2395,0,200,0,0.00000000,0.00000000,0,0,0,0,-255,0,0,0,0,50.2,12.95,6.5009,6.4491
497,89,139,2.39147,29.2771,0,200,0,0.00000000,0.00000000,0,0,0,0,-255,0,0,0,0,50.2,12.95,6.5009,6.4491
498,89,140,2.39995,29.3112,0,200,0,0.00000000,0.00000000,0,0,0,0,-255,0,0,0,0,50.4,12.95,6.5268,6.4232
499,89,140,2.40828,29.3413,0,200,0,0.00000000,0.00000000,0,0,0,0,-255,0,0,0,0,49.9,12.95,6.46205,6.48795
500,89,141,2.41656,29.3684,0,200,0,0.00000000,0.00000000,0,0,0,0,-255,0,0,0,0,49.9,12.95,6.46205,6.48795
501,94,141,2.42497,29.3921,0,200,0,0.00000000,0.00000000,0,0,0,0,-255,0,0,0,0,48.8,12.94,6.31472,6.62528
502,93,141,2.43326,29.4131,0,200,0,0.00000000,0.00000000,0,0,0,0,-255,0,0,0,0,48.8,12.94,6.31472,6.62528
503,93,141,2.44175,29.432,0,199,0,0.00000000,0.00000000,0,0,0,0,-255,0,0,0,0,48.2,12.94,6.23708,6.70292
504,93,141,2.45029,29.4453,0,199,0,0.00000000,0.00000000,0,0,0,0,-255,0,0,0,0,48.2,12.94,6.23708,6.70292
505,94,141,2.45862,29.457,0,199,0,0.00000000,0.00000000,0,0,0,0,-255,0,0,0,0,48.4,12.94,6.26296,6.67704
506,93,142,2.46709,29.4695,0,200,0,0.00000000,0.00000000,0,0,0,0,-255,0,0,0,0,48.4,12.94,6.26296,6.67704
507,93,142,2.47364,29.4785,0,199,0,0.00000000,0.00000000,0,0,0,0,-255,0,0,0,0,48.1,12.94,6.22414,6.71586
508,93,142,2.48216,29.4871,0,199,0,0.00000000,0.00000000,0,0,0,0,-255,0,0,0,0,48.1,12.94,6.22414,6.71586
509,92,142,2.49042,29.4974,0,200,0,0.00000000,0.00000000,0,0,0,0,-255,0,0,0,0,47.7,12.94,6.17238,6.76762
510,92,143,2.49901,29.5108,0,200,0,0.00000000,0.00000000,0,0,0,0,-255,0,0,0,0,47.7,12.94,6.17238,6.76762
511,94,144,2.50761,29.5211,0,199,0,0.00000000,0.00000000,0,0,0,0,-255,0,0,0,0,48.1,12.95,6.22895,6.72105
512,95,144,2.51602,29.5244,0,199,0,0.00000000,0.00000000,0,0,0,0,-255,0,0,0,0,48.1,12.95,6.22895,6.72105
513,95,145,2.52458,29.528,0,198,0,0.00000000,0.00000000,0,0,0,0,-255,0,0,0,0,48.6,12.95,6.2937,6.6563
514,92,145,2.53295,29.5301,0,199,0,0.00000000,0.00000000,0,0,0,0,-255,0,0,0,0,48.6,12.95,6.2937,6.6563
515,91,146,2.53974,29.533,0,199,0,0.00000000,0.00000000,0,0,0,0,-255,0,0,0,0,49.1,12.94,6.35354,6.58646
516,89,146,2.54819,29.5351,0,199,0,0.00000000,0.00000000,0,0,0,0,-255,0,0,0,0,49.1,12.94,6.35354,6.58646
517,90,147,2.55655,29.5699,0,218,0,0.00000000,0.00000000,0,0,0,0,-255,0,0,0,0,49.5,12.94,6.4053,6.5347
518,89,147,2.5649,29.6919,0,225,0,0.00000000,0.00000000,0,0,0,0,-255,0,0,0,0,49.5,12.94,6.4053,6.5347
519,88,147,2.57338,29.8194,0,226,0,0.00000000,0.00000000,0,0,0,0,-255,0,0,0,0,49.4,12.94,6.39236,6.54764
520,89,147,2.58183,29.9321,0,225,0,0.00000000,0.00000000,0,0,0,0,-255,0,0,0,0,49.4,12.94,6.39236,6.54764
521,89,147,2.5907,30.0375,0,225,0,0.00000000,0.00000000,0,0,0,0,-255,0,0,0,0,48.8,12.94,6.31472,6.62528
522,90,146,2.59926,30.1267,0,224,0,0.00000000,0.00000000,0,0,0,0,-255,0,0,0,0,48.8,12.94,6.31472,6.62528
523,89,146,2.60621,30.1899,0,225,0,0.00000000,0.00000000,0,0,0,0,-255,0,0,0,0,49,12.94,6.3406,6.5994
524,88,146,2.61481,30.2648,0,224,0,0.00000000,0.00000000,0,0,0,0,-255,0,0,0,0,49,12.94,6.3406,6.5994
525,89,145,2.62351,30.3348,0,225,0,0.00000000,0.00000000,0,0,0,0,-255,0,0,0,0,48.9,12.95,6.33255,6.61745
526,90,144,2.63227,30.3932,0,225,0,0.00000000,0.00000000,0,0,0,0,-255,0,0,0,0,48.9,12.95,6.33255,6.61745
527,91,143,2.64114,30.4414,0,224,0,0.00000000,0.00000000,0,0,0,0,-255,0,0,0,0,47.8,12.95,6.1901,6.7599
528,89,142,2.6499,30.49,0,226,0,0.00000000,0.00000000,0,0,0,0,-255,0,0,0,0,47.8,12.95,6.1901,6.7599
529,91,142,2.65872,30.5356,0,224,0,0.00000000,0.00000000,0,0,0,0,-255,0,0,0,0,46.6,12.95,6.0347,6.9153
530,91,141,2.66766,30.5718,0,224,0,0.00000000,0.00000000,0,0,0,0,-255,0,0,0,0,46.6,12.95,6.0347,6.9153
531,91,142,2.67473,30.5978,0,224,0,0.00000000,0.00000000,0,0,0,0,-255,0,0,0,0,46.1,12.95,5.96995,6.98005
532,92,142,2.68351,30.6296,0,225,0,0.00000000,0.00000000,0,0,0,0,-255,0,0,0,0,46.1,12.95,5.96995,6.98005
533,90,142,2.69237,30.6605,0,224,0,0.00000000,0.00000000,0,0,0,0,-255,0,0,0,0,45.7,12.95,5.91815,7.03185
534,90,142,2.70124,30.6814,0,224,0,0.00000000,0.00000000,0,0,0,0,-255,0,0,0,0,45.7,12.95,5.91815,7.03185
535,89,142,2.71009,30.7028,0,225,0,0.00000000,0.00000000,0,0,0,0,-255,0,0,0,0,44.5,12.95,5.76275,7.18725
536,89,141,2.71897,30.7278,0,225,0,0.00000000,0.00000000,0,0,0,0,-255,0,0,0,0,44.5,12.95,5.76275,7.18725
537,90,140,2.72618,30.7432,0,225,0,0.00000000,0.00000000,0,0,0,0,-255,0,0,0,0,43.1,12.95,5.58145,7.36855
538,91,140,2.73502,30.7686,0,226,0,0.00000000,0.00000000,0,0,0,0,-255,0,0,0,0,43.1,12.95,5.58145,7.36855
539,94,139,2.74377,30.7895,0,226,0,0.00000000,0.00000000,0,0,0,0,-255,0,0,0,0,42.1,12.96,5.45616,7.50384
540,96,139,2.7525,30.8082,0,226,0,0.00000000,0.00000000,0,0,0,0,-255,0,0,0,0,42.1,12.96,5.45616,7.50384
541,97,139,2.7613,30.8187,0,229,0,0.00000000,0.00000000,0,0,0,0,-255,0,0,0,0,41.4,12.96,5.36544,7.59456
542,97,140,2.77028,30.9355,0,248,0,0.00000000,0.00000000,0,0,0,0,-255,0,0,0,0,41.4,12.96,5.36544,7.59456
543,97,141,2.77907,31.0522,0,248,0,0.00000000,0.00000000,0,0,0,0,-255,0,0,0,0,41.1,12.96,5.32656,7.63344
544,93,142,2.7879,31.1573,0,249,0,0.00000000,0.00000000,0,0,0,0,-255,0,0,0,0,41.1,12.96,5.32656,7.63344
545,93,143,2.79682,31.2568,0,249,0,0.00000000,0.00000000,0,0,0,0,-255,0,0,0,0,41.6,12.96,5.39136,7.56864
546,92,143,2.80573,31.3448,0,248,0,0.00000000,0.00000000,0,0,0,0,-255,0,0,0,0,41.6,12.96,5.39136,7.56864
547,93,144,2.8132,31.4141,0,250,0,0.00000000,0.00000000,0,0,0,0,-255,0,0,0,0,41.8,12.96,5.41728,7.54272
548,93,143,2.82222,31.4939,0,250,0,0.00000000,0.00000000,0,0,0,0,-255,0,0,0,0,41.8,12.96,5.41728,7.54272
549,94,144,2.83142,31.5623,0,250,0,0.00000000,0.00000000,0,0,0,0,-255,0,0,0,0,41.4,12.96,5.36544,7.59456
550,94,143,2.84035,31.6231,0,249,0,0.00000000,0.00000000,0,0,0,0,-255,0,0,0,0,41.4,12.96,5.36544,7.59456
551,93,143,2.84952,31.6789,0,250,0,0.00000000,0.00000000,0,0,0,0,-255,0,0,0,0,40.7,12.96,5.27472,7.68528
552,94,143,2.85872,31.7283,0,250,0,0.00000000,0.00000000,0,0,0,0,-255,0,0,0,0,40.7,12.96,5.27472,7.68528
553,93,144,2.86778,31.7692,0,249,0,0.00000000,0.00000000,0,0,0,0,-255,0,0,0,0,40.5,12.97,5.25285,7.71715
554,94,144,2.87665,31.8109,0,250,0,0.00000000,0.00000000,0,0,0,0,-255,0,0,0,0,40.5,12.97,5.25285,7.71715
555,94,144,2.88386,31.8391,0,249,0,0.00000000,0.00000000,0,0,0,0,-255,0,0,0,0,40.1,12.97,5.20097,7.76903
556,95,145,2.89306,31.8703,0,249,0,0.00000000,0.00000000,0,0,0,0,-255,0,0,0,0,40.1,12.97,5.20097,7.76903
557,95,146,2.90221,31.8923,0,248,0,0.00000000,0.00000000,0,0,0,0,-255,0,0,0,0,39.4,12.97,5.11018,7.85982
558,96,147,2.91117,31.9163,0,250,0,0.00000000,0.00000000,0,0,0,0,-255,0,0,0,0,39.4,12.97,5.11018,7.85982
559,94,147,2.92054,31.9407,0,250,0,0.00000000,0.00000000,0,0,0,0,-255,0,0,0,0,39.2,12.97,5.08424,7.88576
560,94,148,2.92981,31.9606,0,249,0,0.00000000,0.00000000,0,0,0,0,-255,0,0,0,0,39.2,12.97,5.08424,7.88576
561,94,149,2.93911,31.976,0,249,0,0.00000000,0.00000000,0,0,0,0,-255,0,0,0,0,40,12.97,5.188,7.782
562,94,149,2.94651,31.9871,0,249,0,0.00000000,0.00000000,0,0,0,0,-255,0,0,0,0,40,12.97,5.188,7.782
563,95,149,2.95576,32.0031,0,250,0,0.00000000,0.00000000,0,0,0,0,-255,0,0,0,0,40.5,12.96,5.2488,7.7112
564,95,149,2.96511,32.0191,0,250,0,0.00000000,0.00000000,0,0,0,0,-255,0,0,0,0,40.5,12.96,5.2488,7.7112
565,95,149,2.97425,32.0325,0,249,0,0.00000000,0.00000000,0,0,0,0,-255,0,0,0,0,40,12.96,5.184,7.776
566,94,149,2.98328,32.04,0,249,0,0.00000000,0.00000000,0,0,0,0,-255,0,0,0,0,40,12.96,5.184,7.776
567,94,149,2.99233,32.0468,0,249,0,0.00000000,0.00000000,0,0,0,0,-255,0,0,0,0,39.8,12.96,5.15808,7.80192
568,94,149,3.00141,32.0528,0,249,0,0.00000000,0.00000000,0,0,0,0,-255,0,0,0,0,39.8,12.96,5.15808,7.80192
569,94,153,3.01042,32.0606,0,250,0,0.00000000,0.00000000,0,0,0,0,-255,0,0,0,0,40.6,12.96,5.26176,7.69824
570,94,153,3.01973,32.0704,0,250,0,0.00000000,0.00000000,0,0,0,0,-255,0,0,0,0,40.6,12.96,5.26176,7.69824
571,94,153,3.02728,32.0749,0,249,0,0.00000000,0.00000000,0,0,0,0,-255,0,0,0,0,40.6,12.96,5.26176,7.69824
572,93,153,3.03647,32.0811,0,255,0,0.00000000,0.00000000,0,0,0,0,-255,0,0,0,0,40.6,12.96,5.26176,7.69824
573,94,154,3.04577,32.199,0,273,0,0.00000000,0.00000000,0,0,0,0,-255,0,0,0,0,41.5,12.96,5.3784,7.5816
574,93,154,3.05502,32.3091,0,274,0,0.00000000,0.00000000,0,0,0,0,-255,0,0,0,0,41.5,12.96,5.3784,7.5816
575,92,155,3.06423,32.4096,0,274,0,0.00000000,0.00000000,0,0,0,0,-255,0,0,0,0,41,12.96,5.3136,7.6464
576,90,155,3.07344,32.5001,0,276,0,0.00000000,0.00000000,0,0,0,0,-255,0,0,0,0,41,12.96,5.3136,7.6464
577,91,155,3.08263,32.5815,0,274,0,0.00000000,0.00000000,0,0,0,0,-255,0,0,0,0,40.9,12.96,5.30064,7.65936
578,91,155,3.09033,32.6427,0,275,0,0.00000000,0.00000000,0,0,0,0,-255,0,0,0,0,40.9,12.96,5.30064,7.65936
579,91,156,3.09964,32.7108,0,276,0,0.00000000,0.00000000,0,0,0,0,-255,0,0,0,0,41.1,12.97,5.33067,7.63933
580,91,156,3.10895,32.7738,0,274,0,0.00000000,0.00000000,0,0,0,0,-255,0,0,0,0,41.1,12.97,5.33067,7.63933
581,91,156,3.11817,32.8238,0,274,0,0.00000000,0.00000000,0,0,0,0,-255,0,0,0,0,40.6,12.97,5.26582,7.70418
582,92,156,3.12756,32.8711,0,274,0,0.00000000,0.00000000,0,0,0,0,-255,0,0,0,0,40.6,12.97,5.26582,7.70418
583,92,156,3.13691,32.915,0,276,0,0.00000000,0.00000000,0,0,0,0,-255,0,0,0,0,39.6,12.96,5.13216,7.82784
584,91,156,3.1461,32.9557,0,275,0,0.00000000,0.00000000,0,0,0,0,-255,0,0,0,0,39.6,12.96,5.13216,7.82784
585,91,155,3.15543,32.9912,0,275,0,0.00000000,0.00000000,0,0,0,0,-255,0,0,0,0,38.6,12.97,5.00642,7.96358
586,92,154,3.16483,33.0207,0,274,0,0.00000000,0.00000000,0,0,0,0,-255,0,0,0,0,38.6,12.97,5.00642,7.96358
587,92,154,3.1743,33.0453,0,275,0,0.00000000,0.00000000,0,0,0,0,-255,0,0,0,0,37.8,12.97,4.90266,8.06734
588,93,154,3.18193,33.0657,0,275,0,0.00000000,0.00000000,0,0,0,0,-255,0,0,0,0,37.8,12.97,4.90266,8.06734
589,91,154,3.19125,33.0922,0,275,0,0.00000000,0.00000000,0,0,0,0,-255,0,0,0,0,36.9,12.97,4.78593,8.18407
590,92,154,3.20074,33.1133,0,275,0,0.00000000,0.00000000,0,0,0,0,-255,0,0,0,0,36.9,12.97,4.78593,8.18407
591,93,155,3.21011,33.1296,0,274,0,0.00000000,0.00000000,0,0,0,0,-255,0,0,0,0,35.8,12.97,4.64326,8.32674
592,93,155,3.2199,33.1467,0,275,0,0.00000000,0.00000000,0,0,0,0,-255,0,0,0,0,35.8,12.97,4.64326,8.32674
593,93,156,3.22784,33.1596,0,275,0,0.00000000,0.00000000,0,0,0,0,-255,0,0,0,0,35.1,12.97,4.55247,8.41753
594,92,156,3.23754,33.1721,0,274,0,0.00000000,0.00000000,0,0,0,0,-255,0,0,0,0,35.1,12.97,4.55247,8.41753
595,92,157,3.24687,33.183,0,275,0,0.00000000,0.00000000,0,0,0,0,-255,0,0,0,0,34.7,12.97,4.50059,8.46941
596,92,157,3.2563,33.1942,0,275,0,0.00000000,0.00000000,0,0,0,0,-255,0,0,0,0,34.7,12.97,4.50059,8.46941
597,93,158,3.26593,33.2044,0,275,0,0.00000000,0.00000000,0,0,0,0,-255,0,0,0,0,35.2,12.97,4.56544,8.40456
598,94,158,3.2752,33.2108,0,274,0,0.00000000,0.00000000,0,0,0,0,-255,0,0,0,0,35.2,12.97,4.56544,8.40456
599,92,159,3.28467,33.2177,0,275,0,0.00000000,0.00000000,0,0,0,0,-255,0,0,0,0,36,12.97,4.6692,8.3008
600,92,160,3.29403,33.2272,0,281,0,0.00000000,0.00000000,0,0,0,0,-255,0,0,0,0,36.1,12.97,4.68217,8.28783
601,92,160,3.30186,33.3073,0,299,0,0.00000000,0.00000000,0,0,0,0,-255,0,0,0,0,36.1,12.97,4.68217,8.28783
602,92,160,3.31143,33.4184,0,299,0,0.00000000,0.00000000,0,0,0,0,-255,0,0,0,0,36.1,12.97,4.68217,8.28783
603,92,160,3.32104,33.5259,0,301,0,0.00000000,0.00000000,0,0,0,0,-255,0,0,0,0,35.5,12.98,4.6079,8.3721
604,92,161,3.33067,33.6197,0,300,0,0.00000000,0.00000000,0,0,0,0,-255,0,0,0,0,35.5,12.98,4.6079,8.3721
606,92,160,3.34041,33.6981,0,299,0,0.00000000,0.00000000,0,0,0,0,-255,0,0,0,0,35.5,12.98,4.6079,8.3721
607,93,160,3.35001,33.7711,0,300,0,0.00000000,0.00000000,0,0,0,0,-255,0,0,0,0,35.4,12.98,4.59492,8.38508
608,93,160,3.35974,33.8354,0,300,0,0.00000000,0.00000000,0,0,0,0,-255,0,0,0,0,35.4,12.98,4.59492,8.38508
610,93,160,3.377,33.9248,0,300,0,0.00000000,0.00000000,0,0,0,0,-255,0,0,0,0,35.1,12.98,4.55598,8.42402
611,92,160,3.38693,33.9702,0,299,0,0.00000000,0.00000000,0,0,0,0,-255,0,0,0,0,35.1,12.98,4.55598,8.42402
612,91,161,3.39689,34.0125,0,300,0,0.00000000,0.00000000,0,0,0,0,-255,0,0,0,0,34.6,12.98,4.49108,8.48892
613,93,161,3.40667,34.0506,0,300,0,0.00000000,0.00000000,0,0,0,0,-255,0,0,0,0,34.6,12.98,4.49108,8.48892
614,93,161,3.41629,34.0839,0,300,0,0.00000000,0.00000000,0,0,0,0,-255,0,0,0,0,34.8,12.98,4.51704,8.46296
615,93,161,3.42594,34.1126,0,298,0,0.00000000,0.00000000,0,0,0,0,-255,0,0,0,0,34.8,12.98,4.51704,8.46296
616,93,161,3.43374,34.1305,0,300,0,0.00000000,0.00000000,0,0,0,0,-255,0,0,0,0,34.8,12.98,4.51704,8.46296
617,91,162,3.44373,34.1535,0,299,0,0.00000000,0.00000000,0,0,0,0,-255,0,0,0,0,34.8,12.98,4.51704,8.46296
618,92,161,3.45333,34.1746,0,301,0,0.00000000,0.00000000,0,0,0,0,-255,0,0,0,0,34.7,12.98,4.50406,8.47594
619,92,161,3.46304,34.198,0,301,0,0.00000000,0.00000000,0,0,0,0,-255,0,0,0,0,34.7,12.98,4.50406,8.47594
620,93,161,3.47278,34.2179,0,299,0,0.00000000,0.00000000,0,0,0,0,-255,0,0,0,0,34.4,12.98,4.46512,8.51488
621,93,161,3.48243,34.23,0,299,0,0.00000000,0.00000000,0,0,0,0,-255,0,0,0,0,33.8,12.99,4.39062,8.59938
622,93,161,3.49211,34.2385,0,298,0,0.00000000,0.00000000,0,0,0,0,-255,0,0,0,0,33.8,12.99,4.39062,8.59938
623,92,162,3.50186,34.2466,0,300,0,0.00000000,0.00000000,0,0,0,0,-255,0,0,0,0,33,12.99,4.2867,8.7033
624,92,162,3.50972,34.2582,0,300,0,0.00000000,0.00000000,0,0,0,0,-255,0,0,0,0,33,12.99,4.2867,8.7033
625,91,162,3.5195,34.2636,0,299,0,0.00000000,0.00000000,0,0,0,0,-255,0,0,0,0,33,12.99,4.2867,8.7033
626,91,162,3.52917,34.2714,0,300,0,0.00000000,0.00000000,0,0,0,0,-255,0,0,0,0,32.8,12.98,4.25744,8.72256
627,92,162,3.53899,34.2804,0,298,0,0.00000000,0.00000000,0,0,0,0,-255,0,0,0,0,32.8,12.98,4.25744,8.72256
628,92,162,3.5489,34.2831,0,300,0,0.00000000,0.00000000,0,0,0,0,-255,0,0,0,0,33.1,12.98,4.29638,8.68362
629,93,162,3.55856,34.2908,0,300,0,0.00000000,0.00000000,0,0,0,0,-255,0,0,0,0,32.8,12.98,4.25744,8.72256
630,91,162,3.56833,34.2982,0,301,0,0.00000000,0.00000000,0,0,0,0,-255,0,0,0,0,32.8,12.98,4.25744,8.72256
631,91,162,3.57636,34.3028,0,300,0,0.00000000,0.00000000,0,0,0,0,-255,0,0,0,0,32.8,12.98,4.25744,8.72256
632,91,162,3.58605,34.3522,0,317,0,0.00000000,0.00000000,0,0,0,0,-255,0,0,0,0,32.2,12.98,4.17956,8.80044
633,91,162,3.59581,34.4589,0,324,0,0.00000000,0.00000000,0,0,0,0,-255,0,0,0,0,32.2,12.98,4.17956,8.80044
634,92,162,3.60578,34.5606,0,325,0,0.00000000,0.00000000,0,0,0,0,-255,0,0,0,0,32.2,12.98,4.17956,8.80044
635,92,162,3.61571,34.6512,0,325,0,0.00000000,0.00000000,0,0,0,0,-255,0,0,0,0,32.1,12.99,4.16979,8.82021
636,92,162,3.62567,34.7311,0,324,0,0.00000000,0.00000000,0,0,0,0,-255,0,0,0,0,31.4,12.99,4.07886,8.91114
637,92,162,3.63546,34.7982,0,324,0,0.00000000,0.00000000,0,0,0,0,-255,0,0,0,0,29.8,12.99,3.87102,9.11898
638,91,162,3.64542,34.8598,0,324,0,0.00000000,0.00000000,0,0,0,0,-255,0,0,0,0,29.8,12.99,3.87102,9.11898
639,92,162,3.6536,34.9114,0,327,0,0.00000000,0.00000000,0,0,0,0,-255,0,0,0,0,29.8,12.99,3.87102,9.11898
640,93,162,3.66355,34.9695,0,325,0,0.00000000,0.00000000,0,0,0,0,-255,0,0,0,0,28.9,13,3.757,9.243
641,95,162,3.67353,35.0112,0,325,0,0.00000000,0.00000000,0,0,0,0,-255,0,0,0,0,28.9,13,3.757,9.243
642,96,163,3.68342,35.0483,0,324,0,0.00000000,0.00000000,0,0,0,0,-255,0,0,0,0,28.8,13,3.744,9.256
643,96,163,3.69331,35.0811,0,323,0,0.00000000,0.00000000,0,0,0,0,-255,0,0,0,0,28.8,13,3.744,9.256
644,96,163,3.70322,35.1114,0,326,0,0.00000000,0.00000000,0,0,0,0,-255,0,0,0,0,28.3,13,3.679,9.321
645,95,163,3.71314,35.1358,0,324,0,0.00000000,0.00000000,0,0,0,0,-255,0,0,0,0,27.6,12.99,3.58524,9.40476
646,95,163,3.72318,35.155,0,324,0,0.00000000,0.00000000,0,0,0,0,-255,0,0,0,0,27.6,12.99,3.58524,9.40476
647,94,164,3.73326,35.174,0,324,0,0.00000000,0.00000000,0,0,0,0,-255,0,0,0,0,27.6,12.99,3.58524,9.40476
648,94,164,3.74331,35.1939,0,325,0,0.00000000,0.00000000,0,0,0,0,-255,0,0,0,0,27.5,12.99,3.57225,9.41775
649,95,164,3.75325,35.2117,0,325,0,0.00000000,0.00000000,0,0,0,0,-255,0,0,0,0,27.5,12.99,3.57225,9.41775
650,94,165,3.76146,35.2224,0,324,0,0.00000000,0.00000000,0,0,0,0,-255,0,0,0,0,26.9,12.99,3.49431,9.49569
651,94,165,3.77151,35.2402,0,325,0,0.00000000,0.00000000,0,0,0,0,-255,0,0,0,0,26.1,12.99,3.39039,9.59961
652,94,165,3.7814,35.2527,0,325,0,0.00000000,0.00000000,0,0,0,0,-255,0,0,0,0,26.1,12.99,3.39039,9.59961
653,94,165,3.79164,35.2656,0,326,0,0.00000000,0.00000000,0,0,0,0,-255,0,0,0,0,26.1,12.99,3.39039,9.59961
654,96,165,3.80165,35.2758,0,323,0,0.00000000,0.00000000,0,0,0,0,-255,0,0,0,0,25.1,12.99,3.26049,9.72951
655,95,165,3.81156,35.2764,0,323,0,0.00000000,0.00000000,0,0,0,0,-255,0,0,0,0,25.1,12.99,3.26049,9.72951
656,94,165,3.82187,35.2799,0,325,0,0.00000000,0.00000000,0,0,0,0,-255,0,0,0,0,24.7,13,3.211,9.789
657,93,165,3.83175,35.2875,0,324,0,0.00000000,0.00000000,0,0,0,0,-255,0,0,0,0,23.8,13,3.094,9.906
658,93,165,3.84167,35.2947,0,326,0,0.00000000,0.00000000,0,0,0,0,-255,0,0,0,0,23.8,13,3.094,9.906
659,94,165,3.8517,35.3048,0,326,0,0.00000000,0.00000000,0,0,0,0,-255,0,0,0,0,23.8,13,3.094,9.906
660,96,165,3.86184,35.3137,0,324,0,0.00000000,0.00000000,0,0,0,0,-255,0,0,0,0,23.6,13,3.068,9.932
661,96,166,3.86982,35.313,0,325,0,0.00000000,0.00000000,0,0,0,0,-255,0,0,0,0,23.5,13,3.055,9.945
662,96,166,3.87986,35.3858,0,349,0,0.00000000,0.00000000,0,0,0,0,-255,0,0,0,0,23.5,13,3.055,9.945
663,95,166,3.88984,35.4876,0,349,0,0.00000000,0.00000000,0,0,0,0,-255,0,0,0,0,23.6,13.01,3.07036,9.93964
664,95,166,3.89989,35.5819,0,350,0,0.00000000,0.00000000,0,0,0,0,-255,0,0,0,0,23.6,13.01,3.07036,9.93964
665,93,167,3.91027,35.6677,0,349,0,0.00000000,0.00000000,0,0,0,0,-255,0,0,0,0,23.3,13.01,3.03133,9.97867
666,93,167,3.9204,35.7398,0,350,0,0.00000000,0.00000000,0,0,0,0,-255,0,0,0,0,23.3,13.01,3.03133,9.97867
667,93,167,3.93057,35.8066,0,350,0,0.00000000,0.00000000,0,0,0,0,-255,0,0,0,0,23.1,13.01,3.00531,10.0047
668,93,167,3.94092,35.8657,0,350,0,0.00000000,0.00000000,0,0,0,0,-255,0,0,0,0,23.1,13.01,3.00531,10.0047
669,95,168,3.95097,35.9131,0,349,0,0.00000000,0.00000000,0,0,0,0,-255,0,0,0,0,23.1,13.01,3.00531,10.0047
670,94,168,3.96111,35.956,0,349,0,0.00000000,0.00000000,0,0,0,0,-255,0,0,0,0,23.1,13.01,3.00531,10.0047
671,94,168,3.96936,35.9896,0,350,0,0.00000000,0.00000000,0,0,0,0,-255,0,0,0,0,22.5,13,2.925,10.075
672,94,168,3.97955,36.025,0,349,0,0.00000000,0.00000000,0,0,0,0,-255,0,0,0,0,22,13.01,2.8622,10.1478
673,94,168,3.98979,36.0543,0,349,0,0.00000000,0.00000000,0,0,0,0,-255,0,0,0,0,21.6,13.01,2.81016,10.1998
674,95,168,4.00028,36.0812,0,350,0,0.00000000,0.00000000,0,0,0,0,-255,0,0,0,0,21.6,13.01,2.81016,10.1998
675,93,168,4.01065,36.109,0,349,0,0.00000000,0.00000000,0,0,0,0,-255,0,0,0,0,21.5,13,2.795,10.205
676,93,168,4.02079,36.1318,0,349,0,0.00000000,0.00000000,0,0,0,0,-255,0,0,0,0,21.5,13,2.795,10.205
677,94,169,4.03129,36.1522,0,350,0,0.00000000,0.00000000,0,0,0,0,-255,0,0,0,0,21.4,13,2.782,10.218
678,94,169,4.04169,36.1681,0,349,0,0.00000000,0.00000000,0,0,0,0,-255,0,0,0,0,21.4,13,2.782,10.218
679,94,169,4.05182,36.1828,0,350,0,0.00000000,0.00000000,0,0,0,0,-255,0,0,0,0,21.3,13,2.769,10.231
680,93,169,4.0602,36.1936,0,350,0,0.00000000,0.00000000,0,0,0,0,-255,0,0,0,0,21.3,13,2.769,10.231
681,94,169,4.07046,36.2068,0,350,0,0.00000000,0.00000000,0,0,0,0,-255,0,0,0,0,21.1,13,2.743,10.257
682,94,169,4.0808,36.2189,0,349,0,0.00000000,0.00000000,0,0,0,0,-255,0,0,0,0,21.1,13,2.743,10.257
683,94,169,4.09114,36.2313,0,350,0,0.00000000,0.00000000,0,0,0,0,-255,0,0,0,0,20.5,13,2.665,10.335
684,94,169,4.10136,36.2391,0,350,0,0.00000000,0.00000000,0,0,0,0,-255,0,0,0,0,20.5,13,2.665,10.335
685,95,169,4.11167,36.2479,0,350,0,0.00000000,0.00000000,0,0,0,0,-255,0,0,0,0,19.9,13,2.587,10.413
686,95,169,4.12213,36.2557,0,350,0,0.00000000,0.00000000,0,0,0,0,-255,0,0,0,0,19.9,13,2.587,10.413
687,95,169,4.13078,36.2628,0,349,0,0.00000000,0.00000000,0,0,0,0,-255,0,0,0,0,19.7,13,2.561,10.439
688,95,169,4.14118,36.2644,0,349,0,0.00000000,0.00000000,0,0,0,0,-255,0,0,0,0,19.7,13,2.561,10.439
689,97,170,4.15153,36.2637,0,348,0,0.00000000,0.00000000,0,0,0,0,-255,0,0,0,0,20.4,13,2.652,10.348
690,95,170,4.16185,36.2654,0,350,0,0.00000000,0.00000000,0,0,0,0,-255,0,0,0,0,20.4,13,2.652,10.348
691,95,170,4.17213,36.2724,0,353,0,0.00000000,0.00000000,0,0,0,0,-255,0,0,0,0,20.4,13,2.652,10.348
692,95,171,4.18241,36.3537,0,374,0,0.00000000,0.00000000,0,0,0,0,-255,0,0,0,0,20.9,13,2.717,10.283
693,94,171,4.19285,36.4579,0,376,0,0.00000000,0.00000000,0,0,0,0,-255,0,0,0,0,21.8,13,2.834,10.166
694,96,171,4.20319,36.5473,0,375,0,0.00000000,0.00000000,0,0,0,0,-255,0,0,0,0,21.8,13,2.834,10.166
695,95,171,4.2135,36.6217,0,373,0,0.00000000,0.00000000,0,0,0,0,-255,0,0,0,0,22.4,13,2.912,10.088
696,95,171,4.22192,36.6733,0,373,0,0.00000000,0.00000000,0,0,0,0,-255,0,0,0,0,22.4,13,2.912,10.088
697,94,171,4.23228,36.7311,0,374,0,0.00000000,0.00000000,0,0,0,0,-255,0,0,0,0,22.4,13,2.912,10.088
698,94,172,4.24265,36.787,0,375,0,0.00000000,0.00000000,0,0,0,0,-255,0,0,0,0,22.4,13,2.912,10.088
699,95,172,4.25318,36.8353,0,374,0,0.00000000,0.00000000,0,0,0,0,-255,0,0,0,0,22.2,13,2.886,10.114
700,94,172,4.26361,36.8803,0,374,0,0.00000000,0.00000000,0,0,0,0,-255,0,0,0,0,22.2,13,2.886,10.114
701,94,172,4.27411,36.9168,0,374,0,0.00000000,0.00000000,0,0,0,0,-255,0,0,0,0,22.5,13,2.925,10.075
702,94,172,4.28467,36.9505,0,375,0,0.00000000,0.00000000,0,0,0,0,-255,0,0,0,0,22.5,13,2.925,10.075
703,94,173,4.29512,36.9789,0,374,0,0.00000000,0.00000000,0,0,0,0,-255,0,0,0,0,22.7,13.01,2.95327,10.0567
704,94,172,4.3056,37.0036,0,374,0,0.00000000,0.00000000,0,0,0,0,-255,0,0,0,0,22.7,13.01,2.95327,10.0567
705,94,172,4.31412,37.0215,0,374,0,0.00000000,0.00000000,0,0,0,0,-255,0,0,0,0,22.7,13.01,2.95327,10.0567
706,94,173,4.32488,37.0439,0,375,0,0.00000000,0.00000000,0,0,0,0,-255,0,0,0,0,22.8,13.01,2.96628,10.0437
707,96,173,4.33527,37.0649,0,373,0,0.00000000,0.00000000,0,0,0,0,-255,0,0,0,0,22.9,13.01,2.97929,10.0307
708,96,173,4.34569,37.076,0,373,0,0.00000000,0.00000000,0,0,0,0,-255,0,0,0,0,22.9,13.01,2.97929,10.0307
709,96,173,4.35635,37.0882,0,374,0,0.00000000,0.00000000,0,0,0,0,-255,0,0,0,0,22.8,13.01,2.96628,10.0437
710,96,173,4.36684,37.1029,0,375,0,0.00000000,0.00000000,0,0,0,0,-255,0,0,0,0,22.8,13.01,2.96628,10.0437
711,95,173,4.3775,37.1165,0,375,0,0.00000000,0.00000000,0,0,0,0,-255,0,0,0,0,22.4,13.01,2.91424,10.0958
712,95,173,4.38606,37.1256,0,374,0,0.00000000,0.00000000,0,0,0,0,-255,0,0,0,0,22.4,13.01,2.91424,10.0958
713,95,174,4.39692,37.1332,0,374,0,0.00000000,0.00000000,0,0,0,0,-255,0,0,0,0,22.6,13.01,2.94026,10.0697
714,96,174,4.40749,37.1397,0,374,0,0.00000000,0.00000000,0,0,0,0,-255,0,0,0,0,22.6,13.01,2.94026,10.0697
715,96,174,4.41791,37.1448,0,373,0,0.00000000,0.00000000,0,0,0,0,-255,0,0,0,0,22.5,13.01,2.92725,10.0827
716,94,174,4.42844,37.15,0,375,0,0.00000000,0.00000000,0,0,0,0,-255,0,0,0,0,22.5,13.01,2.92725,10.0827
717,94,174,4.43882,37.1548,0,374,0,0.00000000,0.00000000,0,0,0,0,-255,0,0,0,0,22.1,13.01,2.87521,10.1348
718,95,174,4.44955,37.1588,0,374,0,0.00000000,0.00000000,0,0,0,0,-255,0,0,0,0,22.1,13.01,2.87521,10.1348
719,96,174,4.45999,37.1651,0,375,0,0.00000000,0.00000000,0,0,0,0,-255,0,0,0,0,22.1,13.01,2.87521,10.1348
720,96,174,4.47049,37.1749,0,374,0,0.00000000,0.00000000,0,0,0,0,-255,0,0,0,0,22.1,13.01,2.87521,10.1348
721,96,174,4.48142,37.1765,0,376,0,0.00000000,0.00000000,0,0,0,0,-255,0,0,0,0,21.7,13.01,2.82317,10.1868
722,96,175,4.4898,37.1831,0,375,0,0.00000000,0.00000000,0,0,0,0,-255,0,0,0,0,21.7,13.01,2.82317,10.1868
723,96,175,4.50066,37.1859,0,374,0,0.00000000,0.00000000,0,0,0,0,-255,0,0,0,0,21,13.01,2.7321,10.2779
724,97,175,4.51135,37.1894,0,374,0,0.00000000,0.00000000,0,0,0,0,-255,0,0,0,0,21,13.01,2.7321,10.2779
725,95,176,4.52189,37.1867,0,374,0,0.00000000,0.00000000,0,0,0,0,-255,0,0,0,0,20.7,13.01,2.69307,10.3169
726,95,176,4.53234,37.1868,0,374,0,0.00000000,0.00000000,0,0,0,0,-255,0,0,0,0,20.7,13.01,2.69307,10.3169
727,95,176,4.54273,37.1886,0,374,0,0.00000000,0.00000000,0,0,0,0,-255,0,0,0,0,20.7,13.01,2.69307,10.3169
728,95,176,4.55374,37.1902,0,374,0,0.00000000,0.00000000,0,0,0,0,-255,0,0,0,0,20.7,13.01,2.69307,10.3169
729,96,177,4.56429,37.1933,0,374,0,0.00000000,0.00000000,0,0,0,0,-255,0,0,0,0,20,13.01,2.602,10.408
730,95,177,4.57278,37.2404,0,393,0,0.00000000,0.00000000,0,0,0,0,-255,0,0,0,0,20,13.01,2.602,10.408
731,94,177,4.58338,37.3353,0,399,0,0.00000000,0.00000000,0,0,0,0,-255,0,0,0,0,20,13.01,2.602,10.408
732,94,177,4.59387,37.4277,0,401,0,0.00000000,0.00000000,0,0,0,0,-255,0,0,0,0,19.6,13.01,2.54996,10.46
733,94,176,4.60466,37.5074,0,399,0,0.00000000,0.00000000,0,0,0,0,-255,0,0,0,0,19.2,13.01,2.49792,10.5121
734,95,176,4.61522,37.5764,0,400,0,0.00000000,0.00000000,0,0,0,0,-255,0,0,0,0,19.2,13.01,2.49792,10.5121
735,93,176,4.62622,37.6433,0,400,0,0.00000000,0.00000000,0,0,0,0,-255,0,0,0,0,18.9,13.01,2.45889,10.5511
736,94,176,4.63686,37.6995,0,401,0,0.00000000,0.00000000,0,0,0,0,-255,0,0,0,0,18.9,13.01,2.45889,10.5511
737,94,176,4.64761,37.7476,0,400,0,0.00000000,0.00000000,0,0,0,0,-255,0,0,0,0,18.9,13.01,2.45889,10.5511
738,95,176,4.6564,37.7796,0,400,0,0.00000000,0.00000000,0,0,0,0,-255,0,0,0,0,18.8,13.02,2.44776,10.5722
739,95,176,4.6673,37.8142,0,399,0,0.00000000,0.00000000,0,0,0,0,-255,0,0,0,0,18.2,13.02,2.36964,10.6504
740,94,176,4.6783,37.8513,0,401,0,0.00000000,0.00000000,0,0,0,0,-255,0,0,0,0,18.2,13.02,2.36964,10.6504
741,95,176,4.68922,37.8837,0,400,0,0.00000000,0.00000000,0,0,0,0,-255,0,0,0,0,17.8,13.02,2.31756,10.7024
742,96,176,4.7,37.9069,0,399,0,0.00000000,0.00000000,0,0,0,0,-255,0,0,0,0,17.8,13.02,2.31756,10.7024
743,96,176,4.71063,37.9274,0,399,0,0.00000000,0.00000000,0,0,0,0,-255,0,0,0,0,17.5,13.02,2.2785,10.7415
744,96,177,4.72157,37.9455,0,400,0,0.00000000,0.00000000,0,0,0,0,-255,0,0,0,0,17.5,13.02,2.2785,10.7415
745,94,177,4.73218,37.9608,0,399,0,0.00000000,0.00000000,0,0,0,0,-255,0,0,0,0,17.1,13.02,2.22642,10.7936
746,94,177,4.74308,37.9756,0,400,0,0.00000000,0.00000000,0,0,0,0,-255,0,0,0,0,17.1,13.02,2.22642,10.7936
747,94,177,4.75183,37.988,0,400,0,0.00000000,0.00000000,0,0,0,0,-255,0,0,0,0,16.5,13.01,2.14665,10.8634
748,94,178,4.76259,37.9983,0,399,0,0.00000000,0.00000000,0,0,0,0,-255,0,0,0,0,16.5,13.01,2.14665,10.8634
749,95,178,4.77323,38.0054,0,399,0,0.00000000,0.00000000,0,0,0,0,-255,0,0,0,0,17,13.02,2.2134,10.8066
750,93,178,4.78396,38.0096,0,398,0,0.00000000,0.00000000,0,0,0,0,-255,0,0,0,0,17,13.02,2.2134,10.8066
751,92,178,4.79496,38.0177,0,401,0,0.00000000,0.00000000,0,0,0,0,-255,0,0,0,0,17.3,13.02,2.25246,10.7675
752,92,178,4.80592,38.0884,0,426,0,0.00000000,0.00000000,0,0,0,0,-255,0,0,0,0,17.3,13.02,2.25246,10.7675
753,93,179,4.81699,38.1947,0,426,0,0.00000000,0.00000000,0,0,0,0,-255,0,0,0,0,16.8,13.02,2.18736,10.8326
754,95,178,4.82789,38.2833,0,424,0,0.00000000,0.00000000,0,0,0,0,-255,0,0,0,0,16.8,13.02,2.18736,10.8326
755,94,179,4.83646,38.344,0,424,0,0.00000000,0.00000000,0,0,0,0,-255,0,0,0,0,16.7,13.02,2.17434,10.8457
756,94,179,4.84733,38.4146,0,424,0,0.00000000,0.00000000,0,0,0,0,-255,0,0,0,0,16.7,13.02,2.17434,10.8457
757,94,179,4.85816,38.4729,0,424,0,0.00000000,0.00000000,0,0,0,0,-255,0,0,0,0,16.6,13.02,2.16132,10.8587
758,94,179,4.869,38.5241,0,424,0,0.00000000,0.00000000,0,0,0,0,-255,0,0,0,0,16.6,13.02,2.16132,10.8587
759,94,180,4.88023,38.5726,0,425,0,0.00000000,0.00000000,0,0,0,0,-255,0,0,0,0,16,13.02,2.0832,10.9368
760,93,180,4.89128,38.62,0,426,0,0.00000000,0.00000000,0,0,0,0,-255,0,0,0,0,16,13.02,2.0832,10.9368
761,94,180,4.90234,38.656,0,424,0,0.00000000,0.00000000,0,0,0,0,-255,0,0,0,0,15.8,13.02,2.05716,10.9628
762,95,180,4.91336,38.6851,0,424,0,0.00000000,0.00000000,0,0,0,0,-255,0,0,0,0,15.8,13.02,2.05716,10.9628
763,94,180,4.92433,38.7141,0,425,0,0.00000000,0.00000000,0,0,0,0,-255,0,0,0,0,15.5,13.02,2.0181,11.0019
764,95,181,4.93321,38.7344,0,425,0,0.00000000,0.00000000,0,0,0,0,-255,0,0,0,0,15.5,13.02,2.0181,11.0019
765,95,181,4.94433,38.7576,0,424,0,0.00000000,0.00000000,0,0,0,0,-255,0,0,0,0,14.9,13.02,1.93998,11.08
766,95,181,4.95537,38.7711,0,423,0,0.00000000,0.00000000,0,0,0,0,-255,0,0,0,0,14.9,13.02,1.93998,11.08
767,94,181,4.96634,38.786,0,425,0,0.00000000,0.00000000,0,0,0,0,-255,0,0,0,0,15,13.02,1.953,11.067
768,94,181,4.97733,38.8025,0,424,0,0.00000000,0.00000000,0,0,0,0,-255,0,0,0,0,15,13.02,1.953,11.067
769,95,181,4.98834,38.8134,0,424,0,0.00000000,0.00000000,0,0,0,0,-255,0,0,0,0,15,13.02,1.953,11.067
770,94,181,4.99943,38.8229,0,424,0,0.00000000,0.00000000,0,0,0,0,-255,0,0,0,0,14.4,13.02,1.87488,11.1451
771,94,181,5.01083,38.8316,0,424,0,0.00000000,0.00000000,0,0,0,0,-255,0,0,0,0,13.8,13.02,1.79676,11.2232
772,93,181,5.02192,38.8389,0,424,0,0.00000000,0.00000000,0,0,0,0,-255,0,0,0,0,13.8,13.02,1.79676,11.2232
773,93,181,5.03101,38.8442,0,424,0,0.00000000,0.00000000,0,0,0,0,-255,0,0,0,0,13.7,13.02,1.78374,11.2363
774,95,181,5.04213,38.85,0,424,0,0.00000000,0.00000000,0,0,0,0,-255,0,0,0,0,13.7,13.02,1.78374,11.2363
775,95,181,5.05345,38.8551,0,424,0,0.00000000,0.00000000,0,0,0,0,-255,0,0,0,0,13.7,13.02,1.78374,11.2363
776,94,182,5.06485,38.8647,0,426,0,0.00000000,0.00000000,0,0,0,0,-255,0,0,0,0,13.7,13.02,1.78374,11.2363
777,94,182,5.07597,38.8708,0,425,0,0.00000000,0.00000000,0,0,0,0,-255,0,0,0,0,13.1,13.02,1.70562,11.3144
778,94,182,5.08486,38.874,0,424,0,0.00000000,0.00000000,0,0,0,0,-255,0,0,0,0,13.1,13.02,1.70562,11.3144
779,95,182,5.09623,38.8774,0,425,0,0.00000000,0.00000000,0,0,0,0,-255,0,0,0,0,13.1,13.03,1.70693,11.3231
780,95,182,5.1072,38.8875,0,426,0,0.00000000,0.00000000,0,0,0,0,-255,0,0,0,0,13.1,13.03,1.70693,11.3231
781,96,182,5.11822,38.8913,0,423,0,0.00000000,0.00000000,0,0,0,0,-255,0,0,0,0,12.9,13.03,1.68087,11.3491
782,95,182,5.12907,38.8937,0,439,0,0.00000000,0.00000000,0,0,0,0,-255,0,0,0,0,12.9,13.03,1.68087,11.3491
783,94,182,5.14032,38.9862,0,450,0,0.00000000,0.00000000,0,0,0,0,-255,0,0,0,0,13,13.03,1.6939,11.3361
784,95,182,5.15137,39.0751,0,448,0,0.00000000,0.00000000,0,0,0,0,-255,0,0,0,0,13,13.03,1.6939,11.3361
785,94,183,5.1625,39.159,0,451,0,0.00000000,0.00000000,0,0,0,0,-255,0,0,0,0,13,13.03,1.6939,11.3361
786,95,183,5.17372,39.2311,0,449,0,0.00000000,0.00000000,0,0,0,0,-255,0,0,0,0,13,13.03,1.6939,11.3361
787,95,183,5.18268,39.2757,0,449,0,0.00000000,0.00000000,0,0,0,0,-255,0,0,0,0,13.1,13.03,1.70693,11.3231
788,94,183,5.19407,39.3324,0,451,0,0.00000000,0.00000000,0,0,0,0,-255,0,0,0,0,13.1,13.03,1.70693,11.3231
789,96,183,5.20519,39.3798,0,448,0,0.00000000,0.00000000,0,0,0,0,-255,0,0,0,0,13,13.03,1.6939,11.3361
790,96,184,5.2164,39.4179,0,449,0,0.00000000,0.00000000,0,0,0,0,-255,0,0,0,0,13,13.03,1.6939,11.3361
791,94,184,5.22758,39.4534,0,450,0,0.00000000,0.00000000,0,0,0,0,-255,0,0,0,0,13.2,13.03,1.71996,11.31
792,94,184,5.23874,39.4846,0,448,0,0.00000000,0.00000000,0,0,0,0,-255,0,0,0,0,13.2,13.03,1.71996,11.31
793,94,184,5.24998,39.5123,0,450,0,0.00000000,0.00000000,0,0,0,0,-255,0,0,0,0,13.1,13.03,1.70693,11.3231
794,94,184,5.26119,39.5387,0,450,0,0.00000000,0.00000000,0,0,0,0,-255,0,0,0,0,13.1,13.03,1.70693,11.3231
795,94,184,5.27245,39.5598,0,449,0,0.00000000,0.00000000,0,0,0,0,-255,0,0,0,0,12.7,13.03,1.65481,11.3752
796,94,185,5.28357,39.5789,0,450,0,0.00000000,0.00000000,0,0,0,0,-255,0,0,0,0,12.7,13.03,1.65481,11.3752
797,95,185,5.29487,39.6002,0,450,0,0.00000000,0.00000000,0,0,0,0,-255,0,0,0,0,12.7,13.03,1.65481,11.3752
798,95,185,5.30385,39.6127,0,450,0,0.00000000,0.00000000,0,0,0,0,-255,0,0,0,0,12.2,13.03,1.58966,11.4403
799,96,185,5.31547,39.6261,0,450,0,0.00000000,0.00000000,0,0,0,0,-255,0,0,0,0,12,13.03,1.5636,11.4664
800,95,185,5.32676,39.6378,0,449,0,0.00000000,0.00000000,0,0,0,0,-255,0,0,0,0,12,13.03,1.5636,11.4664
801,95,184,5.33807,39.6445,0,449,0,0.00000000,0.00000000,0,0,0,0,-255,0,0,0,0,11.7,13.03,1.52451,11.5055
802,95,184,5.34953,39.6519,0,447,0,0.00000000,0.00000000,0,0,0,0,-255,0,0,0,0,11.7,13.03,1.52451,11.5055
803,95,184,5.36073,39.6522,0,451,0,0.00000000,0.00000000,0,0,0,0,-255,0,0,0,0,11.5,13.03,1.49845,11.5315
804,95,184,5.37203,39.6617,0,449,0,0.00000000,0.00000000,0,0,0,0,-255,0,0,0,0,11.5,13.03,1.49845,11.5315
805,94,184,5.38132,39.6636,0,450,0,0.00000000,0.00000000,0,0,0,0,-255,0,0,0,0,11.5,13.03,1.49845,11.5315
806,94,184,5.39275,39.6759,0,450,0,0.00000000,0.00000000,0,0,0,0,-255,0,0,0,0,11.5,13.03,1.49845,11.5315
807,95,185,5.40406,39.6822,0,451,0,0.00000000,0.00000000,0,0,0,0,-255,0,0,0,0,11.4,13.03,1.48542,11.5446
808,95,185,5.41521,39.6863,0,449,0,0.00000000,0.00000000,0,0,0,0,-255,0,0,0,0,11.4,13.03,1.48542,11.5446
809,95,185,5.42663,39.6857,0,450,0,0.00000000,0.00000000,0,0,0,0,-255,0,0,0,0,11.2,13.02,1.45824,11.5618
810,94,185,5.43803,39.6904,0,450,0,0.00000000,0.00000000,0,0,0,0,-255,0,0,0,0,11.2,13.02,1.45824,11.5618
811,94,185,5.44914,39.7056,0,458,0,0.00000000,0.00000000,0,0,0,0,-255,0,0,0,0,11.3,13.03,1.47239,11.5576
812,95,185,5.46056,39.7803,0,474,0,0.00000000,0.00000000,0,0,0,0,-255,0,0,0,0,11.3,13.03,1.47239,11.5576
813,95,185,5.47212,39.8752,0,475,0,0.00000000,0.00000000,0,0,0,0,-255,0,0,0,0,11.1,13.03,1.44633,11.5837
814,97,185,5.4835,39.9524,0,474,0,0.00000000,0.00000000,0,0,0,0,-255,0,0,0,0,11.1,13.03,1.44633,11.5837
815,96,186,5.49239,40.0072,0,476,0,0.00000000,0.00000000,0,0,0,0,-255,0,0,0,0,11,13.03,1.4333,11.5967
816,96,186,5.50387,40.0662,0,473,0,0.00000000,0.00000000,0,0,0,0,-255,0,0,0,0,11,13.03,1.4333,11.5967
817,95,186,5.51524,40.1159,0,473,0,0.00000000,0.00000000,0,0,0,0,-255,0,0,0,0,11,13.03,1.4333,11.5967
818,95,187,5.5268,40.1616,0,475,0,0.00000000,0.00000000,0,0,0,0,-255,0,0,0,0,11,13.03,1.4333,11.5967
819,96,187,5.53831,40.2037,0,474,0,0.00000000,0.00000000,0,0,0,0,-255,0,0,0,0,11.3,13.03,1.47239,11.5576
820,95,187,5.54992,40.2413,0,476,0,0.00000000,0.00000000,0,0,0,0,-255,0,0,0,0,11.3,13.03,1.47239,11.5576
821,96,187,5.56126,40.2785,0,476,0,0.00000000,0.00000000,0,0,0,0,-255,0,0,0,0,11,13.03,1.4333,11.5967
822,97,188,5.57281,40.3016,0,473,0,0.00000000,0.00000000,0,0,0,0,-255,0,0,0,0,11,13.03,1.4333,11.5967
823,97,188,5.5823,40.3155,0,473,0,0.00000000,0.00000000,0,0,0,0,-255,0,0,0,0,11.1,13.03,1.44633,11.5837
824,97,188,5.59398,40.3338,0,475,0,0.00000000,0.00000000,0,0,0,0,-255,0,0,0,0,11.1,13.03,1.44633,11.5837
825,95,188,5.60571,40.353,0,475,0,0.00000000,0.00000000,0,0,0,0,-255,0,0,0,0,11.4,13.03,1.48542,11.5446
826,95,188,5.61716,40.3702,0,474,0,0.00000000,0.00000000,0,0,0,0,-255,0,0,0,0,11.4,13.03,1.48542,11.5446
827,95,188,5.62849,40.3848,0,476,0,0.00000000,0.00000000,0,0,0,0,-255,0,0,0,0,11.6,13.03,1.51148,11.5185
828,95,189,5.64005,40.4005,0,475,0,0.00000000,0.00000000,0,0,0,0,-255,0,0,0,0,11.6,13.03,1.51148,11.5185
829,95,189,5.64977,40.4075,0,474,0,0.00000000,0.00000000,0,0,0,0,-255,0,0,0,0,11.5,13.03,1.49845,11.5315
830,95,189,5.66146,40.4134,0,473,0,0.00000000,0.00000000,0,0,0,0,-255,0,0,0,0,11.5,13.03,1.49845,11.5315
831,95,189,5.67313,40.4204,0,475,0,0.00000000,0.00000000,0,0,0,0,-255,0,0,0,0,11.6,13.03,1.51148,11.5185
832,95,189,5.68468,40.4305,0,477,0,0.00000000,0.00000000,0,0,0,0,-255,0,0,0,0,11.6,13.03,1.51148,11.5185
833,96,189,5.69619,40.4319,0,471,0,0.00000000,0.00000000,0,0,0,0,-255,0,0,0,0,11.5,13.03,1.49845,11.5315
834,95,189,5.70805,40.4303,0,475,0,0.00000000,0.00000000,0,0,0,0,-255,0,0,0,0,11.5,13.03,1.49845,11.5315
835,93,190,5.71975,40.4383,0,475,0,0.00000000,0.00000000,0,0,0,0,-255,0,0,0,0,11.1,13.03,1.44633,11.5837
836,94,189,5.72895,40.4434,0,474,0,0.00000000,0.00000000,0,0,0,0,-255,0,0,0,0,11.1,13.03,1.44633,11.5837
837,94,189,5.74077,40.4478,0,477,0,0.00000000,0.00000000,0,0,0,0,-255,0,0,0,0,10.8,13.03,1.40724,11.6228
838,94,189,5.75234,40.4548,0,475,0,0.00000000,0.00000000,0,0,0,0,-255,0,0,0,0,10.8,13.03,1.40724,11.6228
839,95,189,5.76376,40.4594,0,477,0,0.00000000,0.00000000,0,0,0,0,-255,0,0,0,0,10.7,13.03,1.39421,11.6358
840,94,189,5.77534,40.4638,0,476,0,0.00000000,0.00000000,0,0,0,0,-255,0,0,0,0,10.7,13.03,1.39421,11.6358
841,95,189,5.78736,40.4786,0,482,0,0.00000000,0.00000000,0,0,0,0,-255,0,0,0,0,10.6,13.03,1.38118,11.6488
842,96,189,5.7966,40.5309,0,498,0,0.00000000,0.00000000,0,0,0,0,-255,0,0,0,0,10.6,13.03,1.38118,11.6488
843,96,189,5.80815,40.6183,0,499,0,0.00000000,0.00000000,0,0,0,0,-255,0,0,0,0,10.9,13.04,1.42136,11.6186
844,97,189,5.81996,40.6958,0,498,0,0.00000000,0.00000000,0,0,0,0,-255,0,0,0,0,10.9,13.04,1.42136,11.6186
845,96,189,5.8314,40.7625,0,501,0,0.00000000,0.00000000,0,0,0,0,-255,0,0,0,0,11.1,13.04,1.44744,11.5926
846,96,189,5.84288,40.8255,0,499,0,0.00000000,0.00000000,0,0,0,0,-255,0,0,0,0,11.1,13.04,1.44744,11.5926
847,95,190,5.8544,40.8744,0,499,0,0.00000000,0.00000000,0,0,0,0,-255,0,0,0,0,10.9,13.04,1.42136,11.6186
848,95,190,5.86598,40.9145,0,498,0,0.00000000,0.00000000,0,0,0,0,-255,0,0,0,0,10.9,13.04,1.42136,11.6186
849,96,190,5.87772,40.9537,0,499,0,0.00000000,0.00000000,0,0,0,0,-255,0,0,0,0,10.6,13.03,1.38118,11.6488
850,95,191,5.88944,40.9889,0,501,0,0.00000000,0.00000000,0,0,0,0,-255,0,0,0,0,10.6,13.03,1.38118,11.6488
851,95,191,5.89904,41.0162,0,499,0,0.00000000,0.00000000,0,0,0,0,-255,0,0,0,0,10.3,13.03,1.34209,11.6879
852,95,190,5.91077,41.0412,0,498,0,0.00000000,0.00000000,0,0,0,0,-255,0,0,0,0,10.3,13.03,1.34209,11.6879
853,95,191,5.9226,41.0608,0,499,0,0.00000000,0.00000000,0,0,0,0,-255,0,0,0,0,9.8,13.03,1.27694,11.7531
854,96,191,5.93463,41.0792,0,499,0,0.00000000,0.00000000,0,0,0,0,-255,0,0,0,0,9.8,13.03,1.27694,11.7531
855,95,191,5.94637,41.1013,0,500,0,0.00000000,0.00000000,0,0,0,0,-255,0,0,0,0,9.9,13.03,1.28997,11.74
856,95,191,5.95829,41.1167,0,504,0,0.00000000,0.00000000,0,0,0,0,-255,0,0,0,0,9.9,13.03,1.28997,11.74
857,96,191,5.96986,41.1416,0,497,0,0.00000000,0.00000000,0,0,0,0,-255,0,0,0,0,9.8,13.03,1.27694,11.7531
858,97,191,5.98148,41.1459,0,499,0,0.00000000,0.00000000,0,0,0,0,-255,0,0,0,0,9.8,13.03,1.27694,11.7531
859,96,191,5.99313,41.1493,0,498,0,0.00000000,0.00000000,0,0,0,0,-255,0,0,0,0,9.9,13.03,1.28997,11.74
860,94,191,6.00479,41.1565,0,500,0,0.00000000,0.00000000,0,0,0,0,-255,0,0,0,0,9.9,13.03,1.28997,11.74
861,94,192,6.01449,41.1611,0,497,0,0.00000000,0.00000000,0,0,0,0,-255,0,0,0,0,9.9,13.03,1.28997,11.74
862,94,192,6.02617,41.1653,0,499,0,0.00000000,0.00000000,0,0,0,0,-255,0,0,0,0,9.9,13.03,1.28997,11.74
863,93,192,6.03771,41.1768,0,500,0,0.00000000,0.00000000,0,0,0,0,-255,0,0,0,0,10,13.03,1.303,11.727
864,95,192,6.04964,41.1819,0,498,0,0.00000000,0.00000000,0,0,0,0,-255,0,0,0,0,10,13.03,1.303,11.727
866,94,192,6.06152,41.1857,0,500,0,0.00000000,0.00000000,0,0,0,0,-255,0,0,0,0,9.7,13.03,1.26391,11.7661
868,94,192,6.08514,41.1967,0,502,0,0.00000000,0.00000000,0,0,0,0,-255,0,0,0,0,9.8,13.03,1.27694,11.7531
869,94,192,6.09674,41.2036,0,500,0,0.00000000,0.00000000,0,0,0,0,-255,0,0,0,0,9.8,13.03,1.27694,11.7531
870,96,192,6.11799,41.2048,0,499,0,0.00000000,0.00000000,0,0,0,0,-255,0,0,0,0,9.7,13.03,1.26391,11.7661
871,94,192,6.12966,41.2101,0,501,0,0.00000000,0.00000000,0,0,0,0,-255,0,0,0,0,9.5,13.03,1.23785,11.7921
873,95,192,6.14133,41.2102,0,498,0,0.00000000,0.00000000,0,0,0,0,-255,0,0,0,0,9.5,13.03,1.23785,11.7921
874,95,192,6.1531,41.217,0,511,0,0.00000000,0.00000000,0,0,0,0,-255,0,0,0,0,9.6,13.03,1.25088,11.7791
875,95,193,6.16481,41.2988,0,523,0,0.00000000,0.00000000,0,0,0,0,-255,0,0,0,0,9.6,13.03,1.25088,11.7791
876,93,193,6.17688,41.3838,0,524,0,0.00000000,0.00000000,0,0,0,0,-255,0,0,0,0,9.6,13.03,1.25088,11.7791
877,93,193,6.1887,41.4553,0,524,0,0.00000000,0.00000000,0,0,0,0,-255,0,0,0,0,9.3,13.03,1.21179,11.8182
878,93,193,6.20079,41.5197,0,523,0,0.00000000,0.00000000,0,0,0,0,-255,0,0,0,0,9.3,13.03,1.21179,11.8182
879,93,193,6.2105,41.5649,0,525,0,0.00000000,0.00000000,0,0,0,0,-255,0,0,0,0,9.3,13.03,1.21179,11.8182
880,93,193,6.22252,41.6112,0,523,0,0.00000000,0.00000000,0,0,0,0,-255,0,0,0,0,9.2,13.03,1.19876,11.8312
881,92,193,6.23443,41.6523,0,524,0,0.00000000,0.00000000,0,0,0,0,-255,0,0,0,0,9.2,13.03,1.19876,11.8312
882,92,193,6.24641,41.6931,0,526,0,0.00000000,0.00000000,0,0,0,0,-255,0,0,0,0,9.2,13.03,1.19876,11.8312
883,92,193,6.25835,41.7277,0,525,0,0.00000000,0.00000000,0,0,0,0,-255,0,0,0,0,9.2,13.03,1.19876,11.8312
884,93,194,6.27055,41.7553,0,524,0,0.00000000,0.00000000,0,0,0,0,-255,0,0,0,0,9.2,13.03,1.19876,11.8312
885,93,194,6.28254,41.7772,0,525,0,0.00000000,0.00000000,0,0,0,0,-255,0,0,0,0,9,13.03,1.1727,11.8573
886,93,194,6.29462,41.8055,0,524,0,0.00000000,0.00000000,0,0,0,0,-255,0,0,0,0,9,13.03,1.1727,11.8573
887,93,194,6.30411,41.8176,0,523,0,0.00000000,0.00000000,0,0,0,0,-255,0,0,0,0,8.9,13.03,1.15967,11.8703
888,93,194,6.31603,41.8292,0,523,0,0.00000000,0.00000000,0,0,0,0,-255,0,0,0,0,8.9,13.03,1.15967,11.8703
889,92,194,6.32811,41.8432,0,523,0,0.00000000,0.00000000,0,0,0,0,-255,0,0,0,0,8.9,13.03,1.15967,11.8703
890,93,194,6.34026,41.8544,0,526,0,0.00000000,0.00000000,0,0,0,0,-255,0,0,0,0,8.9,13.03,1.15967,11.8703
891,92,194,6.3524,41.87,0,527,0,0.00000000,0.00000000,0,0,0,0,-255,0,0,0,0,8.8,13.03,1.14664,11.8834
892,93,194,6.3644,41.8832,0,524,0,0.00000000,0.00000000,0,0,0,0,-255,0,0,0,0,8.8,13.03,1.14664,11.8834
893,93,194,6.37408,41.8835,0,522,0,0.00000000,0.00000000,0,0,0,0,-255,0,0,0,0,8.7,13.02,1.13274,11.8873
894,93,194,6.38586,41.8912,0,525,0,0.00000000,0.00000000,0,0,0,0,-255,0,0,0,0,8.7,13.02,1.13274,11.8873
895,94,194,6.39781,41.8919,0,524,0,0.00000000,0.00000000,0,0,0,0,-255,0,0,0,0,8.7,13.02,1.13274,11.8873
896,93,195,6.40972,41.8956,0,523,0,0.00000000,0.00000000,0,0,0,0,-255,0,0,0,0,8.9,13.02,1.15878,11.8612
897,92,195,6.42178,41.8961,0,523,0,0.00000000,0.00000000,0,0,0,0,-255,0,0,0,0,9.1,13.03,1.18573,11.8443
898,91,195,6.43362,41.8978,0,524,0,0.00000000,0.00000000,0,0,0,0,-255,0,0,0,0,9.1,13.03,1.18573,11.8443
899,91,195,6.44543,41.901,0,524,0,0.00000000,0.00000000,0,0,0,0,-255,0,0,0,0,9.1,13.03,1.18573,11.8443
900,91,194,6.45724,41.908,0,527,0,0.00000000,0.00000000,0,0,0,0,-255,0,0,0,0,9.1,13.03,1.18573,11.8443
901,91,194,6.4693,41.9188,0,532,0,0.00000000,0.00000000,0,0,0,0,-255,0,0,0,0,9.2,13.04,1.19968,11.8403
902,91,195,6.47897,41.9819,0,549,0,0.00000000,0.00000000,0,0,0,0,-255,0,0,0,0,9.2,13.04,1.19968,11.8403
903,92,195,6.4912,42.0703,0,548,0,0.00000000,0.00000000,0,0,0,0,-255,0,0,0,0,9.2,13.04,1.19968,11.8403
904,91,195,6.50372,42.1432,0,548,0,0.00000000,0.00000000,0,0,0,0,-255,0,0,0,0,9.2,13.04,1.19968,11.8403
905,92,195,6.51597,42.2089,0,550,0,0.00000000,0.00000000,0,0,0,0,-255,0,0,0,0,9,13.04,1.1736,11.8664
906,92,195,6.52579,42.2535,0,548,0,0.00000000,0.00000000,0,0,0,0,-255,0,0,0,0,9,13.04,1.1736,11.8664
907,90,195,6.53784,42.3023,0,551,0,0.00000000,0.00000000,0,0,0,0,-255,0,0,0,0,8.6,13.03,1.12058,11.9094
908,90,196,6.55003,42.3499,0,550,0,0.00000000,0.00000000,0,0,0,0,-255,0,0,0,0,8.6,13.03,1.12058,11.9094
909,89,196,6.56264,42.391,0,549,0,0.00000000,0.00000000,0,0,0,0,-255,0,0,0,0,8.6,13.03,1.12058,11.9094
910,90,196,6.57468,42.4187,0,548,0,0.00000000,0.00000000,0,0,0,0,-255,0,0,0,0,8.6,13.03,1.12058,11.9094
911,90,196,6.58458,42.4479,0,552,0,0.00000000,0.00000000,0,0,0,0,-255,0,0,0,0,8.4,13.03,1.09452,11.9355
912,89,196,6.59645,42.4738,0,550,0,0.00000000,0.00000000,0,0,0,0,-255,0,0,0,0,8.4,13.03,1.09452,11.9355
913,90,196,6.60845,42.4951,0,548,0,0.00000000,0.00000000,0,0,0,0,-255,0,0,0,0,8.5,13.03,1.10755,11.9224
914,90,196,6.62048,42.5108,0,550,0,0.00000000,0.00000000,0,0,0,0,-255,0,0,0,0,8.5,13.03,1.10755,11.9224
915,89,196,6.63283,42.5283,0,548,0,0.00000000,0.00000000,0,0,0,0,-255,0,0,0,0,8.3,13.02,1.08066,11.9393
916,89,196,6.64497,42.5333,0,547,0,0.00000000,0.00000000,0,0,0,0,-255,0,0,0,0,8.3,13.02,1.08066,11.9393
917,88,196,6.65707,42.5406,0,548,0,0.00000000,0.00000000,0,0,0,0,-255,0,0,0,0,8.6,13.03,1.12058,11.9094
918,88,197,6.66727,42.5462,0,548,0,0.00000000,0.00000000,0,0,0,0,-255,0,0,0,0,8.6,13.03,1.12058,11.9094
919,89,196,6.67952,42.5521,0,548,0,0.00000000,0.00000000,0,0,0,0,-255,0,0,0,0,8.7,13.03,1.13361,11.8964
920,89,196,6.69172,42.5629,0,551,0,0.00000000,0.00000000,0,0,0,0,-255,0,0,0,0,8.7,13.03,1.13361,11.8964
921,89,197,6.70372,42.5752,0,549,0,0.00000000,0.00000000,0,0,0,0,-255,0,0,0,0,8.7,13.02,1.13274,11.8873
922,88,197,6.71598,42.5861,0,551,0,0.00000000,0.00000000,0,0,0,0,-255,0,0,0,0,8.7,13.02,1.13274,11.8873
923,87,197,6.72821,42.5937,0,550,0,0.00000000,0.00000000,0,0,0,0,-255,0,0,0,0,8.7,13.02,1.13274,11.8873
924,87,197,6.74014,42.5965,0,549,0,0.00000000,0.00000000,0,0,0,0,-255,0,0,0,0,8.7,13.02,1.13274,11.8873
925,87,197,6.74987,42.5975,0,548,0,0.00000000,0.00000000,0,0,0,0,-255,0,0,0,0,8.9,13.03,1.15967,11.8703
926,85,197,6.76177,42.588,0,545,0,0.00000000,0.00000000,0,0,0,0,-255,0,0,0,0,8.9,13.03,1.15967,11.8703
927,85,197,6.77395,42.5794,0,545,0,0.00000000,0.00000000,0,0,0,0,-255,0,0,0,0,8.8,13.02,1.14576,11.8742
928,81,197,6.78593,42.571,0,546,0,0.00000000,0.00000000,0,0,0,0,-255,0,0,0,0,8.8,13.02,1.14576,11.8742
929,80,197,6.79833,42.57,0,548,0,0.00000000,0.00000000,0,0,0,0,-255,0,0,0,0,8.9,13.03,1.15967,11.8703
930,80,197,6.81061,42.5681,0,544,0,0.00000000,0.00000000,0,0,0,0,-255,0,0,0,0,8.9,13.03,1.15967,11.8703
931,79,197,6.82262,42.4102,0,265,0,0.00000000,0.00000000,0,0,0,0,-255,0,0,0,0,8.8,13.02,1.14576,11.8742
932,79,197,6.83441,40.7433,0,0,0,0.00000000,0.00000000,0,0,0,0,-255,0,0,0,0,8.8,13.02,1.14576,11.8742
933,79,197,6.84567,39.2666,0,130,0,0.00000000,0.00000000,0,0,0,0,-255,0,0,0,0,8.5,13.01,1.10585,11.9041
934,79,197,6.85449,38.2579,0,130,0,0.00000000,0.00000000,0,0,0,0,-255,0,0,0,0,8.5,13.01,1.10585,11.9041
935,0,196,6.86512,36.7133,0,0,0,0.00000000,0.00000000,0,0,0,0,-255,0,0,0,0,8.5,13.01,1.10585,11.9041
936,0,196,6.87537,35.1149,0,0,0,0.00000000,0.00000000,0,0,0,0,-255,0,0,0,0,8.5,13.01,1.10585,11.9041
937,0,195,6.88513,33.6468,0,0,0,0.00000000,0.00000000,0,0,0,0,-255,0,0,0,0,9.2,13,1.196,11.804
938,0,194,6.89446,32.289,0,0,0,0.00000000,0.00000000,0,0,0,0,-255,0,0,0,0,9.2,13,1.196,11.804
939,0,193,6.90342,31.0263,0,0,0,0.00000000,0.00000000,0,0,0,0,-255,0,0,0,0,9.9,13,1.287,11.713
940,0,193,6.91219,29.8263,0,0,0,0.00000000,0.00000000,0,0,0,0,-255,0,0,0,0,9.9,13,1.287,11.713
941,0,192,6.92061,28.7062,0,0,0,0.00000000,0.00000000,0,0,0,0,-255,0,0,0,0,11.3,13,1.469,11.531
942,0,191,6.9271,27.8646,0,0,0,0.00000000,0.00000000,0,0,0,0,-255,0,0,0,0,11.3,13,1.469,11.531
943,0,191,6.93478,26.8918,0,0,0,0.00000000,0.00000000,0,0,0,0,-255,0,0,0,0,13.7,13.01,1.78237,11.2276
944,0,190,6.94239,25.9505,0,0,0,0.00000000,0.00000000,0,0,0,0,-255,0,0,0,0,13.7,13.01,1.78237,11.2276
945,0,189,6.94981,25.0531,0,0,0,0.00000000,0.00000000,0,0,0,0,-255,0,0,0,0,16.6,13.02,2.16132,10.8587
946,0,188,6.95673,24.2356,0,0,0,0.00000000,0.00000000,0,0,0,0,-255,0,0,0,0,16.6,13.02,2.16132,10.8587
947,0,188,6.96347,23.4559,0,0,0,0.00000000,0.00000000,0,0,0,0,-255,0,0,0,0,20,13.03,2.606,10.424
948,0,187,6.96997,22.7181,0,0,0,0.00000000,0.00000000,0,0,0,0,-255,0,0,0,0,20,13.03,2.606,10.424
949,0,187,6.97625,22.0183,0,0,0,0.00000000,0.00000000,0,0,0,0,-255,0,0,0,0,24.5,13.03,3.19235,9.83765
950,0,186,6.98125,21.4696,0,0,0,0.00000000,0.00000000,0,0,0,0,-255,0,0,0,0,24.5,13.03,3.19235,9.83765
951,0,185,6.98726,20.8193,0,0,0,0.00000000,0.00000000,0,0,0,0,-255,0,0,0,0,30.2,13.03,3.93506,9.09494
952,0,185,6.99322,20.1855,0,0,0,0.00000000,0.00000000,0,0,0,0,-255,0,0,0,0,30.2,13.03,3.93506,9.09494
953,0,184,6.99886,19.5949,0,0,0,0.00000000,0.00000000,0,0,0,0,-255,0,0,0,0,37,13.03,4.8211,8.2089
954,0,184,7.00424,19.0381,0,0,0,0.00000000,0.00000000,0,0,0,0,-255,0,0,0,0,37,13.03,4.8211,8.2089
955,0,183,7.00967,18.4843,0,0,0,0.00000000,0.00000000,0,0,0,0,-255,0,0,0,0,44.5,13.04,5.8028,7.2372
956,0,182,7.01482,17.9655,0,0,0,0.00000000,0.00000000,0,0,0,0,-255,0,0,0,0,44.5,13.04,5.8028,7.2372
957,0,181,7.01991,17.4586,0,0,0,0.00000000,0.00000000,0,0,0,0,-255,0,0,0,0,51.7,13.04,6.74168,6.29832
958,0,181,7.02381,17.0731,0,0,0,0.00000000,0.00000000,0,0,0,0,-255,0,0,0,0,51.7,13.04,6.74168,6.29832
959,0,180,7.02857,16.6075,0,0,0,0.00000000,0.00000000,0,0,0,0,-255,0,0,0,0,58.4,13.05,7.6212,5.4288
960,0,180,7.03329,16.1506,0,0,0,0.00000000,0.00000000,0,0,0,0,-255,0,0,0,0,58.4,13.05,7.6212,5.4288
961,0,178,7.03787,15.71,0,0,0,0.00000000,0.00000000,0,0,0,0,-255,0,0,0,0,58.4,13.05,7.6212,5.4288
962,0,178,7.04221,15.297,0,0,0,0.00000000,0.00000000,0,0,0,0,-255,0,0,0,0,63.8,13.06,8.33228,4.72772
963,0,177,7.04658,14.8832,0,0,0,0.00000000,0.00000000,0,0,0,0,-255,0,0,0,0,67.8,13.07,8.86146,4.20854
964,0,176,7.05079,14.4869,0,0,0,0.00000000,0.00000000,0,0,0,0,-255,0,0,0,0,67.8,13.07,8.86146,4.20854
965,0,176,7.05414,14.173,0,0,0,0.00000000,0.00000000,0,0,0,0,-255,0,0,0,0,70.2,13.07,9.17514,3.89486
966,0,175,7.05814,13.8009,0,0,0,0.00000000,0.00000000,0,0,0,0,-255,0,0,0,0,70.2,13.07,9.17514,3.89486
967,0,174,7.062,13.4424,0,0,0,0.00000000,0.00000000,0,0,0,0,-255,0,0,0,0,71.3,13.07,9.31891,3.75109
968,0,174,7.06578,13.0932,0,0,0,0.00000000,0.00000000,0,0,0,0,-255,0,0,0,0,71.3,13.07,9.31891,3.75109
969,0,173,7.06945,12.7554,0,0,0,0.00000000,0.00000000,0,0,0,0,-255,0,0,0,0,71.3,13.07,9.31891,3.75109
970,0,171,7.07302,12.4271,0,0,0,0.00000000,0.00000000,0,0,0,0,-255,0,0,0,0,72.1,13.08,9.43068,3.64932
971,0,171,7.0765,12.1077,0,0,0,0.00000000,0.00000000,0,0,0,0,-255,0,0,0,0,72.8,13.08,9.52224,3.55776
972,0,170,7.07988,11.7972,0,0,0,0.00000000,0.00000000,0,0,0,0,-255,0,0,0,0,72.8,13.08,9.52224,3.55776
973,0,169,7.0826,11.5483,0,0,0,0.00000000,0.00000000,0,0,0,0,-255,0,0,0,0,73.3,13.08,9.58764,3.49236
974,0,167,7.08579,11.2553,0,0,0,0.00000000,0.00000000,0,0,0,0,-255,0,0,0,0,73.3,13.08,9.58764,3.49236
975,0,167,7.08899,10.9621,0,0,0,0.00000000,0.00000000,0,0,0,0,-255,0,0,0,0,73.7,13.09,9.64733,3.44267
976,0,166,7.09202,10.6835,0,0,0,0.00000000,0.00000000,0,0,0,0,-255,0,0,0,0,73.7,13.09,9.64733,3.44267
977,0,165,7.09498,10.4107,0,0,0,0.00000000,0.00000000,0,0,0,0,-255,0,0,0,0,74.8,13.1,9.7988,3.3012
978,0,165,7.09794,10.1377,0,0,0,0.00000000,0.00000000,0,0,0,0,-255,0,0,0,0,74.8,13.1,9.7988,3.3012
979,0,164,7.10081,9.87155,0,0,0,0.00000000,0.00000000,0,0,0,0,-255,0,0,0,0,75.5,13.1,9.8905,3.2095
980,0,164,7.10363,9.60905,0,0,0,0.00000000,0.00000000,0,0,0,0,-255,0,0,0,0,75.5,13.1,9.8905,3.2095
981,0,164,7.10584,9.40243,0,0,0,0.00000000,0.00000000,0,0,0,0,-255,0,0,0,0,75.9,13.11,9.95049,3.15951
982,0,164,7.10854,9.14788,0,0,0,0.00000000,0.00000000,0,0,0,0,-255,0,0,0,0,75.9,13.11,9.95049,3.15951
983,0,163,7.11115,8.90148,0,0,0,0.00000000,0.00000000,0,0,0,0,-255,0,0,0,0,76,13.1,9.956,3.144
984,0,163,7.11363,8.66474,0,0,0,0.00000000,0.00000000,0,0,0,0,-255,0,0,0,0,76,13.1,9.956,3.144
985,0,163,7.11609,8.42854,0,0,0,0.00000000,0.00000000,0,0,0,0,-255,0,0,0,0,76.2,13.1,9.9822,3.1178
986,0,162,7.11851,8.1937,0,0,0,0.00000000,0.00000000,0,0,0,0,-255,0,0,0,0,76.2,13.1,9.9822,3.1178
987,0,162,7.12026,8.02329,0,0,0,0.00000000,0.00000000,0,0,0,0,-255,0,0,0,0,76.2,13.1,9.9822,3.1178
988,0,162,7.12251,7.80176,0,0,0,0.00000000,0.00000000,0,0,0,0,-255,0,0,0,0,76.2,13.1,9.9822,3.1178
